#"Step","Potential Energy (kJ/mole)","Kinetic Energy (kJ/mole)","Total Energy (kJ/mole)","Temperature (K)"
1,-32.16765691234567,0.41754365423670714,-31.750113258108964,3.0435696434066224
2,-32.17337827417545,0.9006169650189719,-31.272761309156476,6.564799697601947
3,-32.17662189838885,1.6884231677520605,-30.488198730636793,12.307296366385188
4,-32.18036481955821,2.4811571649648063,-29.6992076545934,18.085712837888572
5,-32.18329171714017,3.1199853572687877,-29.063306359871383,22.742275268475733
6,-32.18655564325336,3.533549746416762,-28.653005896836596,25.756839153312573
7,-32.18807757395816,3.6158640951177254,-28.572213478840435,26.35684696179196
8,-32.192663140848936,4.936431189044439,-27.256231951804498,35.982757638136526
9,-32.198940037745714,5.172626436329734,-27.02631360141598,37.70443793972941
10,-32.20228990935282,4.40159992578035,-27.80068998357247,32.08425222271811
11,-32.20797890024808,4.119177139613348,-28.08880176063473,30.025608988981144
12,-32.2166475933719,4.6835078259061484,-27.533139767465755,34.13914233625096
13,-32.22781656020873,5.527824664969456,-26.699991895239272,40.293557748186124
14,-32.239985416626325,6.109366284949187,-26.130619131677136,44.53254546357462
15,-32.250780676097946,6.221857588597993,-26.028923087499955,45.35251988650921
16,-32.25816388674284,6.6874337491831115,-25.570730137559732,48.746209276043935
17,-32.26567188110257,7.30467015694894,-24.96100172415363,53.24538433096272
18,-32.272640324898724,7.2491647466026645,-25.023475578296058,52.840792906184454
19,-32.28263569503136,7.125218542603173,-25.157417152428188,51.937321137231464
20,-32.29347352417757,7.655419178487514,-24.63805434569006,55.802072867783814
21,-32.305209102037225,8.014730955963257,-24.290478146073966,58.42117725925826
22,-32.31815329124242,7.959181787203016,-24.358971504039403,58.01626686955492
23,-32.331360817664915,8.74748614123559,-23.583874676429325,63.762394675244586
24,-32.34348067682703,7.690952470204487,-24.65252820662254,56.06108302612951
25,-32.358475911462506,7.547393949571062,-24.811081961891443,55.01465266844395
26,-32.37610598819514,6.987192993222015,-25.388912994973126,50.93122185192688
27,-32.39585257032922,6.744834966154052,-25.651017604175166,49.16461966186748
28,-32.4164788274313,6.92902853951281,-25.487450287918488,50.50724806178921
29,-32.43372324664659,7.391956287264152,-25.041766959382443,53.88163257428343
30,-32.453004376518365,8.445869862253268,-24.007134514265097,61.56384575382462
31,-32.47214406947854,8.764232346564441,-23.707911722914098,63.88446153379693
32,-32.49299299273321,8.382823169196257,-24.11016982353695,61.10428422257282
33,-32.5100672059761,9.022971100954567,-23.487096105021532,65.77046653098508
34,-32.52546248585141,9.602735480643567,-22.922727005207847,69.99649954201385
35,-32.537473471774476,9.980283973069485,-22.557189498704993,72.7485354520364
36,-32.55529141660692,11.085821578224602,-21.469469838382317,80.80704780290802
37,-32.57427337800635,11.906845235206406,-20.66742814279995,86.79167396966545
38,-32.594043502685835,12.46280987269768,-20.131233629988156,90.84422530485287
39,-32.61433820288798,14.574173338887444,-18.040164864000534,106.23442866847526
40,-32.63284419016592,14.588990193548124,-18.043853996617795,106.34243205590178
41,-32.648519646021654,14.853363192159927,-17.79515645386173,108.26950632693145
42,-32.66257701245392,15.38708097017023,-17.27549604228369,112.15989529779989
43,-32.67681155149651,14.96992285256403,-17.70688869893248,109.11913591763911
44,-32.689804196570066,14.005555897193197,-18.68424829937687,102.08964819656072
45,-32.70163457863761,14.921182871733759,-17.78045170690385,108.76385923083036
46,-32.71514518135826,14.135664666599311,-18.57948051475895,103.03804029134501
47,-32.73441676661121,15.054068981207791,-17.68034778540342,109.73249598227358
48,-32.75333139742751,14.67081696689459,-18.082514430532918,106.93888581791737
49,-32.77142355253652,14.268822949324582,-18.50260060321194,104.00866097485572
50,-32.787613567801635,13.467682848700694,-19.31993071910094,98.16897052420813
51,-32.804581107661896,13.828402503396223,-18.976178604265673,100.79833724951118
52,-32.82293037908979,14.911050843892792,-17.911879535197,108.69000460018272
53,-32.84395961457466,15.373449656916199,-17.470509957658457,112.06053358843425
54,-32.864881698595966,15.893075796271262,-16.971805902324704,115.84820543451404
55,-32.88294603898136,15.350466331755811,-17.532479707225548,111.8930029600726
56,-32.90087142724412,13.80783245336338,-19.093038973880738,100.64839752654312
57,-32.91398090488832,14.836313162333166,-18.077667742555153,108.14522482325306
58,-32.92958602990412,16.538975910330265,-16.390610119573857,120.55631669396193
59,-32.94631105217152,16.583942671801,-16.362368380370516,120.88408953588147
60,-32.96196749212683,16.758078566660586,-16.203888925466245,122.15340525423659
61,-32.97927363084801,17.50807412426532,-15.471199506582693,127.62029162325211
62,-32.99570312804074,16.996392681273065,-15.999310446767673,123.89053045652423
63,-33.01000973031526,17.18328275122368,-15.826726979091582,125.25281422681803
64,-33.02414762365164,19.044932574907865,-13.979215048743779,138.82279866443653
65,-33.03992389169352,18.898449406426,-14.14147448526752,137.75504989053545
66,-33.0588134512738,20.29070190988011,-12.76811154139369,147.90349164620298
67,-33.07247656872412,20.871791825368838,-12.200684743355282,152.13918678592265
68,-33.084407770919604,22.03556099858816,-11.048846772331444,160.62216213856632
69,-33.095778926188345,20.690206898478333,-12.405572027710011,150.8155733970557
70,-33.108873989873125,19.91132368951188,-13.197550300361243,145.13811843751859
71,-33.12164073044327,18.986683364434167,-14.1349573660091,138.39820706317215
72,-33.13304982129786,19.211855679127524,-13.921194142170336,140.03953872893322
73,-33.143531393058836,20.510752010204865,-12.632779382853972,149.50748633892874
74,-33.153294440600995,22.332695966833384,-10.82059847376761,162.78804577772485
75,-33.16332839641781,22.63291671900086,-10.53041167741695,164.97642239019666
76,-33.17926146291788,21.890256579899038,-11.28900488301884,159.5630055371242
77,-33.19092076596013,19.152072687001866,-14.038848078958264,139.6037670481055
78,-33.203882196701244,19.214190471347543,-13.989691725353701,140.05655755475516
79,-33.215449627326365,19.538136058318564,-13.6773135690078,142.41786982621792
80,-33.22435502525795,20.69471394009365,-12.5296410851643,150.8484262374779
81,-33.235201399045785,21.877243945520757,-11.357957453525028,159.4681535172872
82,-33.24418113066896,22.120520340821056,-11.123660789847907,161.24144990002574
83,-33.25296833025441,21.087997749641683,-12.164970580612728,153.7151604144632
84,-33.26393260911551,20.157103864718497,-13.10682874439701,146.92966543534686
85,-33.274080106712475,20.36450429784176,-12.909575808870716,148.44145385765512
86,-33.28521965162572,20.529370488049306,-12.75584916357641,149.64320061311017
87,-33.29023724307378,20.245958923248555,-13.044278319825228,147.57734994943576
88,-33.290996792579904,20.814333228803985,-12.476663563775919,151.72035814732862
89,-33.29427454736018,23.684896323907687,-9.609378223452495,172.64453842666316
90,-33.2949616739217,23.616488590205662,-9.678473083716035,172.14589906391117
91,-33.29136295829691,23.693113713576146,-9.598249244720762,172.7044368288762
92,-33.288239542536616,24.467574147900002,-8.820665394636613,178.34965318891537
93,-33.28193481950053,24.320725491118186,-8.961209328382342,177.27924028856074
94,-33.27275085794746,26.06667478601007,-7.206076071937389,190.00585753909533
95,-33.264932748170615,28.40070741713058,-4.864225331040036,207.01914654664836
96,-33.26152352250081,30.02008888046226,-3.2414346420385485,218.8231823950715
97,-33.26118323425371,28.868833384410653,-4.392349849843054,210.43142205089126
98,-33.260354932220906,28.76935097585218,-4.491003956368726,209.7062723912825
99,-33.25933112949311,29.578461384482484,-3.6808697450106287,215.60406021031488
100,-33.26038368067897,29.71310901341349,-3.54727466726548,216.58553707342335
101,-33.26390657812661,30.528266807603828,-2.7356397705227806,222.5274056464697
102,-33.268263598181335,32.0019431524144,-1.2663204457669366,233.2693641022176
103,-33.27558363533862,32.284720203628375,-0.9908634317102454,235.33058965359191
104,-33.276992588327566,33.36096746922841,0.08397488090084693,243.1755981290954
105,-33.28701906037489,31.94791314496589,-1.3391059154089966,232.8755272211281
106,-33.29438517770199,32.85512845782876,-0.439256719873228,239.48842376079804
107,-33.304401851086276,31.546966256120506,-1.75743559496577,229.95293513494505
108,-33.31030378157639,30.57679327104981,-2.7335105105265782,222.88112595702276
109,-33.319198984603084,30.2753834737574,-3.0438155108456826,220.68408212709915
110,-33.329861446413624,29.56853745385541,-3.7613239925582143,215.53172244708134
111,-33.339233750701865,30.277236490102638,-3.0619972605992274,220.6975891801698
112,-33.35031926456929,31.13417861344992,-2.2161406511193746,226.9440331299505
113,-33.36428547459543,31.882880946485052,-1.4814045281103745,232.4014928941016
114,-33.378315809148624,34.09960594410205,0.7212901349534278,248.55970016673075
115,-33.39144655391533,34.16892697362187,0.7774804197065421,249.064996748191
116,-33.400863102058246,33.36613969864819,-0.0347234034100552,243.21329967309214
117,-33.41395080516256,30.450799353610957,-2.9631514515515995,221.962727944073
118,-33.42742539583684,30.129335360301493,-3.298090035535349,219.61950456717
119,-33.44064874907954,29.615310579236045,-3.825338169843498,215.87266228197356
120,-33.45602378931588,30.17084095057106,-3.28518283874482,219.92204815343777
121,-33.462190847795675,31.037598183959837,-2.4245926638358384,226.24003664871898
122,-33.46366811300225,30.188179675288485,-3.275488437713765,220.0484340191308
123,-33.46500064907578,30.852339649042946,-2.612661000032837,224.88964550438277
124,-33.465829739619934,30.59911389014566,-2.866715849474275,223.0438259717706
125,-33.462040199634956,29.189913216407525,-4.27212698322743,212.77184518955016
126,-33.458672175704486,29.6238773780264,-3.834794797678086,215.93510760589342
127,-33.44723168258383,29.569816075185994,-3.8774156073978396,215.54104260565086
128,-33.43607077547399,28.360263602421995,-5.075807173051999,206.72434248134496
129,-33.42305509799787,28.820242276811587,-4.60281282118628,210.07723053456135
130,-33.408192151318595,28.474804682472612,-4.933387468845982,207.55925818567377
131,-33.39232373996824,30.724040072821168,-2.6682836671470724,223.9544410257891
132,-33.37882663229705,32.31357345225183,-1.065253180045218,235.54090747481362
133,-33.36134465170107,33.143893945232975,-0.2174507064680924,241.59330037096618
134,-33.35133950939526,33.4254679050457,0.07412839565044038,243.6457563184202
135,-33.33760055839028,31.81928044912511,-1.5183201092651686,231.9378945586793
136,-33.3212720389521,30.21627238972992,-3.104999649222183,220.25320813557894
137,-33.30222203258424,31.401498908600864,-1.9007231239833757,228.8925909085982
138,-33.28065413487496,32.75088501241782,-0.5297691224571395,238.7285698323343
139,-33.260753893578475,31.466718521637567,-1.7940353719409075,229.3679913424908
140,-33.24393382440054,30.64901875878325,-2.5949150656172932,223.40759378790762
141,-33.22354384730751,30.38911786939569,-2.8344259779118204,221.51311772724182
142,-33.20041628458631,29.849063538170537,-3.351352746415774,217.5765401942605
143,-33.17412368712603,31.042715298134695,-2.131408388991332,226.27733644529454
144,-33.14166097993376,32.53797181893671,-0.6036891609970496,237.17659765940198
145,-33.10777909717242,34.038532964867485,0.9307538676950671,248.11452547961804
146,-33.08020053803367,34.188290061228,1.1080895231943302,249.20613865046315
147,-33.05715256298313,33.186480117694,0.1293275547108763,241.90372056395944
148,-33.03858000522828,31.96487654432381,-1.073703460904472,232.99917725582716
149,-33.0180088113888,29.542071220785004,-3.475937590603799,215.33880411930636
150,-32.99954142859011,29.53930456274675,-3.4602368658433633,215.31863732636512
151,-32.98147574213262,30.971893717689476,-2.009582024443148,225.76110201051387
152,-32.96113607425067,31.96442127072891,-0.9967148035217583,232.99585866415697
153,-32.93917850770365,30.577811292172697,-2.3613672155309544,222.8885465420431
154,-32.91164128225414,29.993640067225126,-2.9180012150290118,218.6303910443807
155,-32.890282042139724,30.313468581366187,-2.5768134607735362,220.961693045641
156,-32.87489160626309,29.356586592036784,-3.518305014226307,213.98676492616227
157,-32.85742696999525,29.156492536138003,-3.700934433857249,212.52823433138428
158,-32.840084901882676,31.010135312092988,-1.8299495897896882,226.03985359651216
159,-32.8273743087299,28.911196339336296,-3.9161779693936047,210.74021516104494
160,-32.815951299168766,28.886399254463733,-3.9295520447050336,210.55946363004375
161,-32.80448663646223,29.49545742439359,-3.3090292120686406,214.99902566926573
162,-32.79645689988574,29.258831262159728,-3.5376256377260127,213.27420433165653
163,-32.78867739757373,29.588355899329255,-3.200321498244474,215.6761835553072
164,-32.78570702056933,28.785935978263065,-3.999771042306268,209.82716420549502
165,-32.78767074009105,26.941205540581247,-5.8464651995098045,196.38050897932393
166,-32.788520190334715,28.949461335372078,-3.839058854962637,211.01913732680623
167,-32.797913010518464,28.559573496788616,-4.238339513729848,208.177157146278
168,-32.811828334678324,29.613967907102147,-3.1978604275761775,215.86287524268724
169,-32.81991148652382,27.796127046322134,-5.023784440201688,202.61222419273093
170,-32.83262802071058,27.510544672521014,-5.322083348189565,200.53055001381898
171,-32.84453866090211,26.821336946854007,-6.023201714048103,195.50675982911113
172,-32.86129802106167,25.80688018313314,-7.054417837928533,188.11215622472008
173,-32.87723779385048,26.178192326188043,-6.69904546766244,190.81873398099344
174,-32.886296753467086,25.572475091595376,-7.31382166187171,186.40352477115752
175,-32.89514450575868,26.16313256079702,-6.732011944961659,190.70895996259833
176,-32.91244319183944,24.53109219931068,-8.381350992528755,178.81265055726308
177,-32.93634627384495,23.801801441233497,-9.13454483261145,173.49668613060123
178,-32.958825493083204,23.99869944177189,-8.960126051311313,174.9319199587422
179,-32.985606025078454,24.152106023154385,-8.833500001924069,176.05013504704974
180,-33.01299940265858,22.72174528391826,-10.29125411874032,165.62391378638182
181,-33.04713990897704,21.43792823728993,-11.609211671687106,156.26588247358688
182,-33.08611830337758,23.670441239474687,-9.415677063902894,172.53917206382482
183,-33.12064863414284,23.721629532699183,-9.399019101443656,172.9122950505474
184,-33.15237515546763,23.468074906046734,-9.684300249420897,171.06407832687233
185,-33.182260331561,21.948931185700516,-11.23332914586048,159.99069794064715
186,-33.210038361856625,22.809642107172902,-10.400396254683724,166.26461350794446
187,-33.229657202914446,23.184444809100853,-10.045212393813593,168.99663473322218
188,-33.23998920085464,22.95465647567501,-10.285332725179629,167.32165586831186
189,-33.24983043971588,22.213593171017365,-11.036237268698514,161.9198787007921
190,-33.25031795607085,20.47749934009442,-12.772818615976433,149.26510014461482
191,-33.255960451827,21.489614146258567,-11.766346305568433,156.6426326934325
192,-33.2661425339831,20.539970999130134,-12.726171534852966,149.72047012350225
193,-33.277379927187134,20.694840531131042,-12.582539396056092,150.84934898803255
194,-33.28246478574114,22.928889780051303,-10.353575005689837,167.13383662638236
195,-33.28479368075354,23.626134146852394,-9.658659533901144,172.2162076965676
196,-33.28173902712817,23.060936977861534,-10.220802049266634,168.0963583619523
197,-33.27500487744751,24.051066726061542,-9.223938151385966,175.31363687661272
198,-33.26932127411342,25.982789513632664,-7.286531760480759,189.3943989144792
199,-33.27053332118306,25.45454818040456,-7.815985140778498,185.54392898183295
200,-33.253365798257406,25.479446490285188,-7.773919307972218,185.72541836469364
201,-33.24032518018941,25.16041667533779,-8.07990850485162,183.3999382615639
202,-33.23248365200636,25.377353023081557,-7.855130628924801,184.9812361111299
203,-33.23215984373407,26.516887518160967,-6.7152723255731,193.28755944198866
204,-33.22531162527276,26.363736352316277,-6.8615752729564825,192.1712061350049
205,-33.21037232263163,25.590982039172484,-7.619390283459143,186.53842607612594
206,-33.19457699265567,25.417279483462536,-7.777297509193133,185.2722690643342
207,-33.17675830136285,24.347768778598716,-8.828989522764136,177.47636489576888
208,-33.16286133283238,23.069499795002066,-10.093361537830312,168.15877466273074
209,-33.1434349806053,24.09958046809857,-9.04385451250673,175.6672644579536
210,-33.136706970218576,25.234056080452635,-7.90265088976594,183.93671245437443
211,-33.127233645861715,26.791621834887795,-6.335611810973919,195.2901596920641
212,-33.1203402011734,29.071972800353528,-4.0483674008198705,211.91215096023925
213,-33.10884866852679,30.008240209423743,-3.1006084591030465,218.73681476591074
214,-33.087340165801464,31.750938110198998,-1.3364020556024663,231.43973187316283
215,-33.0549005683654,30.056420800807395,-2.9984797675580026,219.08801393718
216,-33.02120924091011,30.643941623084253,-2.377267617825858,223.3705854034378
217,-32.97209539040773,30.98538212089963,-1.9867132695081011,225.8594220164148
218,-32.91707120124677,29.819071374784464,-3.0979998264623063,217.3579205670773
219,-32.86020222614654,32.38367129395415,-0.4765309321923894,236.05186641505549
220,-32.81588048798807,32.409647385829594,-0.40623310215847397,236.24121199337822
221,-32.762086966670715,32.32934152501978,-0.43274544165093687,235.6558445050489
222,-32.70137805291438,31.56097673677607,-1.140401316138309,230.05506068081343
223,-32.645096305045286,30.07306246384389,-2.572033841201396,219.20931876344127
224,-32.58571231915549,29.483728831882594,-3.1019834872728964,214.91353331950984
225,-32.51344211975733,30.133441509302397,-2.380000610454932,219.6494352111246
226,-32.43906614006708,29.641661706775178,-2.7974044332918986,216.06474157963228
227,-32.35884178350531,29.767912789055053,-2.590928994450259,216.98501412497055
228,-32.28209207573209,29.74620130790788,-2.535890767824206,216.82675425378721
229,-32.20183146457082,28.728467051373922,-3.473364413196901,209.40826026684292
230,-32.10986779537804,30.2933604668747,-1.816507328503338,220.81512047476977
231,-32.00529777744784,30.616439866926534,-1.3888579105213097,223.1701189148858
232,-31.897743979035884,28.90681075102812,-2.990933228007762,210.70824762110558
233,-31.795894915821435,27.481401243903104,-4.314493671918331,200.31811700532694
234,-31.686679331087504,28.749784517852145,-2.9368948132353587,209.56364807645068
235,-31.61062524388936,28.63321148983639,-2.977413754052968,208.71392104621395
236,-31.53973211166018,30.306948912250448,-1.232783199409731,220.91416971052533
237,-31.46802074758464,29.66052111042218,-1.8074996371624579,216.20221201619708
238,-31.40183848329725,30.51520030991339,-0.8866381733838615,222.43216100483107
239,-31.317958167616503,30.1758472171894,-1.142110950427103,219.9585399572331
240,-31.24157841585902,28.768342114215546,-2.4732363016434746,209.69891857181835
241,-31.177809015888805,28.00071138564656,-3.177097630242244,204.103485473716
242,-31.098396269488113,26.73773959900758,-4.360656670480534,194.89739995118455
243,-31.0231543208986,25.890118769522978,-5.13303555137562,188.71890100966795
244,-30.9569524077924,26.173592673631646,-4.783359734160754,190.78520607858414
245,-30.89977792802724,26.9640298896526,-3.9357480383746406,196.54688079520284
246,-30.846004344419907,26.754032301408674,-4.091972043011232,195.01616112485797
247,-30.802890927200707,27.155353850955734,-3.647537076244973,197.94148419719448
248,-30.76725997993255,26.314335008954735,-4.452924970977815,191.8111086278986
249,-30.74123756829954,27.934526202247614,-2.8067113660519247,203.62104678019887
250,-30.70554660090106,30.66924179745499,-0.036304803446068235,223.55500406698675
