#"Step","Potential Energy (kJ/mole)","Kinetic Energy (kJ/mole)","Total Energy (kJ/mole)","Temperature (K)"
5,0.8709614248197205,3.7771947881755628,4.648156212995283,18.542513235511944
10,0.8711784698232948,6.264471316216303,7.135649786039598,30.75272756863359
15,0.871449654523952,8.1915110457677,9.06296070029165,40.21270029824313
20,0.8721792184067725,10.183527054671934,11.055706273078707,49.99164612494208
25,0.8731671927344489,12.615168356187269,13.488335548921718,61.928743242230034
30,0.8746627951836999,18.901718359660574,19.776381154844273,92.789856629876
35,0.8771858943841521,27.19637123282511,28.073557127209263,133.50888736827218
40,0.8811385600657218,40.44160733171116,41.32274589177688,198.53067720021872
45,0.8875239632682119,48.954209964465505,49.84173392773372,240.31963854280875
50,0.8957977195549389,45.413595648032555,46.3093933675875,222.93851537970818
55,0.9061989205221224,48.53454197253012,49.440740893052244,238.2594590362228
60,0.9182400186726065,51.105925924419424,52.02416594309203,250.88256259200222
65,0.9320451628464231,52.98033035277845,53.91237551562487,260.08414494892827
70,0.9467152776098238,56.39103978639963,57.33775506400946,276.8275559621457
75,0.9635537727138143,58.316409323862025,59.27996309657584,286.2793296020464
80,0.9822547307467516,62.2281991549237,63.210453885670454,305.4825793110817
85,1.0049528598446869,59.87896416304512,60.883917022889804,293.9500205278804
90,1.0293519407469165,59.8303688367247,60.859720777471615,293.71146267423165
95,1.0553380990513264,61.057415158791486,62.11275325784281,299.73511883799
100,1.0826170765610967,60.276067954306725,61.358685030867825,295.8994307961543
105,1.1113660724640726,70.44388749302641,71.55525356549049,345.8139676273546
110,1.143531077144554,67.1073522677375,68.25088334488206,329.43468298750827
115,1.1763220937683918,65.5888750205876,66.76519711435598,321.98037204192406
120,1.2072636889229702,67.68616624690529,68.89342993582825,332.2761212694885
125,1.2437553298783381,74.70432694721515,75.94808227709349,366.7287627064163
130,1.2841532517585628,83.7825538609148,85.06670711267337,411.2944131804719
135,1.3267215995028594,89.89849980473659,91.22522140423945,441.31801931431585
140,1.3711709290133747,90.94725266927429,92.31842359828767,446.4664204326136
145,1.4196203598376456,90.2200368655187,91.63965722535634,442.89646722066266
150,1.4668390999937524,88.34717028439312,89.81400938438686,433.7024342632988
155,1.51382125483682,91.30459431276707,92.81841556760388,448.2206355381747
160,1.5656924058690014,87.75336886107576,89.31906126694476,430.7874215703881
165,1.6276228345831505,80.92346566411541,82.55108849869856,397.25894937632546
170,1.6996862738733367,89.15545400297138,90.85514027684472,437.6703555356422
175,1.7853251931169478,84.99282097459165,86.7781461677086,417.23569903740207
180,1.8793777560524767,80.62568080782452,82.505058563877,395.7971027020702
185,1.9783928223046927,86.53994273786243,88.51833556016713,424.83062791483326
190,2.0866444856088253,77.38053130259351,79.46717578820234,379.86643694971553
195,2.199457320205031,71.11678969965794,73.31624701986297,349.117291594583
200,2.3223865263904497,80.06698363102629,82.38937015741674,393.0544192090571
205,2.460405355621209,81.36741323622127,83.82781859184247,399.4383190390752
210,2.597118683711834,75.77259098748183,78.36970967119368,371.9729455501701
215,2.7301077511706393,67.03998278472929,69.77009053589993,329.1039614863933
220,2.8648794600304925,75.90940690483676,78.77428636486725,372.64458445169674
225,3.015973612401394,82.19302657739834,85.20900018979974,403.49131264007127
230,3.1767148142371275,80.18843226341616,83.36514707765329,393.65061903453966
235,3.345265867654611,80.30634908435759,83.65161495201221,394.22948095075344
240,3.5084925690704356,80.49304533191194,84.00153790098238,395.14598587979077
245,3.6732054847529065,76.45242640144745,80.12563188620037,375.31030511682246
250,3.841311607632039,84.8114852167998,88.65279682443183,416.34550912729924
255,4.015023584533849,86.30171723856479,90.31674082309864,423.66116228716925
260,4.184562909161811,82.22053049079089,86.4050933999527,403.62633127339836
265,4.343352702392374,72.43293649598789,76.77628919838027,355.5783482144912
270,4.507661746998601,66.2724276047225,70.7800893517211,325.3359794567621
275,4.678437149416855,72.94458783722177,77.62302498663863,358.09008041228424
280,4.881830613920652,74.73952353097914,79.6213541448998,366.90154519630323
285,5.119160110480354,80.63964247662005,85.7588025871004,395.8656415100875
290,5.389187084615974,82.73420826738355,88.12339535199952,406.1480113840125
295,5.665934729740781,82.74702090076828,88.41295563050906,406.2109094968824
300,5.970383956029907,91.00028776474879,96.9706717207787,446.726773423373
305,6.318098875726108,89.65704163175258,95.97514050747868,440.1326842655663
310,6.696153324938647,95.1847654341166,101.88091875905525,467.2686667911318
315,7.112448420271654,93.71789829583155,100.8303467161032,460.06771347743586
320,7.530752029678311,95.18560396888986,102.71635599856818,467.27278321694615
325,8.003812404084655,98.48689535420954,106.49070775829419,483.47905338289087
330,8.536737831351628,102.59499785364721,111.13173568499884,503.64601570295065
335,9.153118989238967,100.16993004595801,109.32304903519697,491.74118832633275
340,9.838554794833556,104.3458595509108,114.18441434574436,512.241118157474
345,10.558731352950662,97.7793831028824,108.33811445583306,480.00582628706064
350,11.341083245868097,100.45181352124654,111.79289676711463,493.1249740097643
355,12.208140604472039,97.41472175640351,109.62286236087554,478.2156782479042
360,13.218523893890582,111.51891966202403,124.73744355591461,547.4541716292767
365,14.330335642708171,109.99572403956682,124.326059682275,539.9766978495013
370,15.527043165904026,113.23865786181148,128.7657010277155,555.896486659203
375,16.829031439628615,115.13860394555886,131.96763538518746,565.2234547877547
380,18.122873313429377,112.03759662353816,130.16046993696753,550.000393088106
385,19.42507279769167,106.82032055935387,126.24539335704554,524.3884202091048
390,20.873382158531697,103.08679044745189,123.96017260598359,506.0602599215165
395,22.4496791076337,103.86832918554103,126.31800829317473,509.89688821520394
400,24.159341704833235,108.98835139080441,133.14769309563763,535.0314351028607
405,25.84369667823828,100.96969969921072,126.81339637744901,495.6673134568723
410,27.61212870273728,103.80642020084092,131.4185489035782,509.5929726819642
415,29.407970071624536,105.45333223054111,134.86130230216565,517.6777789524901
420,31.23160145433526,92.41591313155183,123.6475145858871,453.6761772991394
425,33.0700277103986,99.36865224857709,132.43867995897568,487.80765961085075
430,34.80472413867436,103.17322656955353,137.9779507082279,506.48458088667127
435,36.30778130702153,110.88189411804146,147.189675425063,544.3269687067179
440,37.782806179341065,113.28754879677605,151.07035497611713,556.1364956763485
445,38.988484726944755,101.18500176499849,140.17348649194324,496.7242463471221
450,39.74718956141207,101.29338452027186,141.04057408168393,497.2563048685542
455,40.08804812233891,101.62188991534181,141.70993803768073,498.8689608149964
460,39.94174507508894,96.58179826296015,136.52354333804908,474.126798598464
465,39.68637015700275,103.78894167471124,143.47531183171398,509.50716937547037
470,39.17927140234984,108.38129830641647,147.5605697087663,532.0513690794829
475,38.156327287846544,106.59300199163219,144.74932927947873,523.2724974709257
480,36.878670110549976,99.64579087179888,136.52446098234884,489.1681524838285
485,35.39523503576134,97.46354241256091,132.85877744832226,478.4553422614729
490,33.872223007142125,105.42701382889959,139.2992368360417,517.5485800792144
495,32.36735756587854,111.86115058095848,144.22850814683702,549.1342071317636
500,30.793240360957814,119.5781981542343,150.37143851519212,587.0177330792454
505,29.324021932814443,119.92505412764697,149.24907606046142,588.7204732974504
510,28.024625483693598,125.31767874180603,153.34230422549962,615.1932444648834
515,26.91659228407082,127.07385870310063,153.99045098717144,623.8144546492738
520,25.976416261821427,132.026734792198,158.00315105401944,648.1284695694039
525,25.25411297212575,137.4604580591698,162.71457103129555,674.8029968962301
530,24.864402102169237,125.59212052317748,150.45652262534674,616.5404983527126
535,24.758700371953047,123.03229034943692,147.79099072138996,603.9741131014573
540,24.961058188760912,119.73768477970688,144.6987429684678,587.8006640715707
545,25.351667148411654,110.7333056905977,136.08497283900937,543.5975377302841
550,25.99237067911578,110.9658577694949,136.95822844861067,544.7391521406387
555,26.986982126619505,112.46229967570034,139.44928180231983,552.0852900572886
560,28.24537503786343,110.9774801998951,139.22285523775852,544.796207463864
565,29.865155998334732,114.99174380210876,144.8568998004435,564.5025080782502
570,31.725041512732595,104.46100378054942,136.186045293282,512.8063692291823
575,33.675382214880905,99.83231011796987,133.50769233285078,490.0837885007028
580,35.626492745913,96.90133155601993,132.52782430193292,475.6954098690015
585,37.777667382052115,98.67248761440752,136.45015499645962,484.3901387608287
590,39.83963551110035,88.8489451418041,128.68858065290445,436.16568211165355
595,41.7017725017895,78.14285405869677,119.84462656048626,383.6087326446654
600,43.34896307793945,73.51065458430185,116.8596176622413,360.8689416409331
605,44.74344549323962,70.0348826346595,114.77832812789912,343.8061341887936
610,45.571607405361455,66.59390468248446,112.16551208784591,326.9141329022704
615,45.714195380710926,69.78287368299631,115.49706906370724,342.56900463002404
620,45.66681490425977,70.84800985874209,116.51482476300185,347.79783256821156
625,45.53755464975334,68.22999636883321,113.76755101858654,334.94582135095806
630,45.322425783799744,71.07127971026844,116.39370549406819,348.8938798755886
635,44.9097018637373,72.8161408804129,117.7258427441502,357.4595253230562
640,44.46669134488171,76.33468065351458,120.80137199839629,374.7322830099655
645,44.115081223084886,75.66869794701992,119.78377917010481,371.46292735257197
650,43.36917680560427,78.36371944348473,121.732896249089,384.69297625675495
655,42.43056670485077,78.2272636617787,120.65783036662947,384.02310528630164
660,41.563392519907936,78.03769477135658,119.60108729126452,383.092498352633
665,40.684176123444914,70.63846363608327,111.32263975952819,346.76915551420683
670,40.060944785213636,72.5723229853816,112.63326777059524,356.26260623383547
675,39.533353616696544,69.79516472565054,109.32851834234708,342.62934221753943
680,38.976860466630015,78.71531638434664,117.69217685097665,386.4189902155549
685,38.69850050386968,80.01422113028548,118.71272163415516,392.7954044048993
690,38.79883675734153,82.29282735145347,121.091664108795,403.98124161583513
695,38.893870100985446,78.571469419182,117.46533952016745,385.71283540887043
700,39.028477146909125,82.3059130937013,121.33439024061043,404.0454804392039
705,39.2228993001881,79.31929468448796,118.54219398467606,389.38396190814314
710,39.46418837624372,75.2183940043264,114.68258238057012,369.2523538223064
715,39.46192063186692,80.20579130441583,119.66771193628274,393.73583578017843
720,39.18547275863416,90.12522609926727,129.31069885790143,442.4310345420013
725,38.53090665368438,85.20579336638357,123.73670002006796,418.28119539516547
730,37.77547336195897,89.15325866462202,126.92873202658099,437.6595784662342
735,36.996130438420714,86.18300441304032,123.17913485146104,423.0783927288178
740,36.00757090586848,85.04482592872087,121.05239683458935,417.4909949922922
745,34.83178575104222,83.47827249037786,118.31005824142008,409.800674663686
750,33.38624815153654,79.00008769495491,112.38633584649145,387.8169524844265
755,31.829707842872814,86.47906031819366,118.30876816106647,424.5317518610877
760,30.42391582396982,83.16855195929502,113.59246778326484,408.28023492759087
765,29.179011852312087,82.56354527453766,111.74255712684975,405.3102148230399
770,27.98710157290621,83.27864403465964,111.26574560756585,408.82068462082987
775,26.973247389014812,81.71368887753431,108.68693626654913,401.1382103664388
780,25.909872281049076,81.5438959793474,107.45376826039647,400.3046851609655
785,25.051064921780274,81.9375191231221,106.98858404490238,402.23700868743407
790,24.359870913387116,82.5669329076245,106.92680382101162,405.3268449506538
795,23.700586660239175,86.5324543763943,110.23304103663347,424.7938670249607
800,23.058353766105178,81.6586322071476,104.71698597325278,400.86793332313016
805,22.44604406811737,84.87743478187015,107.32347884998752,416.66926015200715
810,21.869702252011294,80.09471260238516,101.96441485439645,393.19054266767205
815,21.39789141402421,77.06127475374433,98.45916616776853,378.2991842358519
820,20.943447573296922,76.77567878490949,97.71912635820641,376.8971736621036
825,20.439348822506958,79.07733955223793,99.51668837474489,388.19618725162
830,19.959989200140924,86.99671730838959,106.95670650853052,427.07296620942145
835,19.67655824326969,83.98769237609432,103.664250619364,412.30145249036855
840,19.532746741060954,80.5040486972385,100.03679543829946,395.2000021692979
845,19.46578477740161,94.64406557122413,114.10985034862574,464.61433337006787
850,19.50068103864591,101.67613495315359,121.1768159917995,499.13525349726274
855,19.689195453298133,99.06834679147153,118.75754224476967,486.33343913101
860,20.046185622445677,96.68300064199185,116.72918626443753,474.62360815102807
865,20.415407295802087,95.24961173786534,115.66501903366742,467.5870018288956
870,20.874752880205,96.83009748188341,117.70485036208842,475.3457168199084
875,21.289038555024668,97.0231356903259,118.31217424535058,476.2933548782393
880,21.726475062898285,91.66410941966275,113.39058448256104,449.9855203275026
885,22.046145332513337,87.59499325649524,109.64113858900858,430.00994465728064
890,22.142955775901637,88.4836733044299,110.62662908033154,434.3725371300197
895,22.205782221722142,84.61282814284488,106.81861036456702,415.3702876654173
900,22.253229844513626,86.39633811765752,108.64956796217115,424.1256627964957
905,22.254013029581596,81.44063840993944,103.69465143952104,399.79778653518963
910,22.155056730913866,71.88274173229568,94.03779846320955,352.87740366172176
915,22.18790264111986,72.23384909135676,94.42175173247662,354.6010142292403
920,22.222918550164756,63.8049531271415,86.02787167730625,313.2229747734816
925,22.286727488762306,62.17118265722178,84.45791014598409,305.2026813384937
930,22.161431247404686,56.84250667982022,79.00393792722491,279.04383849881896
935,21.84560990905787,64.42759114908674,86.27320105814461,316.2795483446924
940,21.44513272811263,65.06036605410817,86.5054987822208,319.38588458347743
945,21.053494621755025,66.02842666023969,87.08192128199471,324.1381617649891
950,20.603248929010704,66.27429709512974,86.87754602414044,325.34515691584596
955,20.185620123795537,71.61506499526911,91.80068511906464,351.56335984944815
960,19.910963093544638,73.04804420436167,92.95900729790631,358.59795495002186
965,19.815042973812695,73.40086856150248,93.21591153531517,360.32999438112955
970,19.765744677991783,79.40723552411517,99.17298020210694,389.81566963680837
975,19.703135702863776,78.43662342452163,98.1397591273854,385.0508669955461
980,19.599948793322277,74.43660733006713,94.0365561233894,365.41450839262944
985,19.435499159085467,69.82501829493492,89.26051745402039,342.77589547587706
990,19.304819431238116,63.490803593264076,82.79562302450219,311.68079275308713
995,19.29445485373284,64.9805143012916,84.27496915502445,318.9938867473809
1000,19.32792766685098,66.33425389121595,85.66218155806693,325.639489018725
1005,19.363145747606396,70.56195930695381,89.9251050545602,346.3935904149703
1010,19.398622294327094,69.08592975626019,88.48455205058728,339.1476581783214
1015,19.417408694310836,79.83139810091035,99.24880679522118,391.897913374636
1020,19.410555030923895,85.84498755365087,105.25554258457475,421.4190443391938
1025,19.430374697094614,83.03760934798713,102.46798404508175,407.6374284959846
1030,19.454421551803307,85.037995987202,104.4924175390053,417.4574663319732
1035,19.40674100745807,86.17993594594088,105.58667695339895,423.06332940934533
1040,19.30867460120515,91.5334348157812,110.84210941698636,449.34402956308554
1045,19.195962829974274,90.21754139115868,109.41350422113295,442.8842167625993
1050,19.17226053642835,92.02195483211962,111.19421536854797,451.74220847012117
1055,19.210194535890775,89.7933213071297,109.00351584302048,440.8016907177414
1060,19.315171120053034,82.36917728030083,101.68434840035387,404.35604875329454
1065,19.44525243677314,83.47377344111248,102.91902587788562,409.77858851636535
1070,19.53160227121793,79.92792040453305,99.45952267575099,392.3717481098869
1075,19.616886203891863,71.20829191045596,90.82517811434782,349.5664823432603
1080,19.719045127639912,82.79413834664567,102.51318347428558,406.4422123321346
1085,19.850927298077572,83.98359166237876,103.83451896045634,412.281321800105
1090,20.10057210205781,84.23341802832853,104.33399013038634,413.5077368930479
1095,20.37036651545599,86.53806597464892,106.9084324901049,424.8214147530351
1100,20.67139419907697,78.5818377835577,99.25323198263467,385.7637344343242
1105,21.02062548928156,83.61902420769536,104.63964969697692,410.49163468233553
1110,21.362482214289148,81.54187959523583,102.90436180952497,400.2947865904195
1115,21.766005185592412,82.44928829810975,104.21529348370217,404.7493193393608
1120,22.291702373964984,81.33621637255744,103.62791874652243,399.28517145473467
1125,22.862636218594478,74.37409387297531,97.23673009156978,365.10762546216694
1130,23.548303120933728,70.29100921118726,93.83931233212098,345.06347745583923
1135,24.25556135115951,66.33620342352998,90.5917647746895,325.649059409124
1140,24.8837698014296,62.67310701587418,87.55687681730379,307.66666309889246
1145,25.522030844849684,63.9463411240915,89.46837196894118,313.9170583333221
1150,26.230395581771365,62.89394712547338,89.12434270724475,308.7507826333137
1155,26.924468550421512,56.64043092257306,83.56489947299457,278.0518344816946
1160,27.694940575361425,57.19958256347352,84.89452313883494,280.79674897075193
1165,28.45687778515522,63.8294459549981,92.28632374015332,313.3432117774423
1170,29.23507244308071,62.35368732257887,91.58875976565957,306.09860949753926
1175,29.940692383012514,66.64044126014377,96.58113364315629,327.1425842148382
1180,30.638076400681157,67.521514582168,98.15959098284915,331.467834738384
1185,31.177132848756923,64.81467590221862,95.99180875097555,318.1797744544715
1190,31.722601679527237,61.169779303121516,92.89238098264875,300.2867222765945
1195,32.3815114974541,60.259785486725136,92.64129698417923,295.8194990246758
1200,32.93361698549998,55.248938518499344,88.18255550399932,271.220901006825
1205,33.42774337668669,58.77635622620361,92.2040996028903,288.53724109525297
1210,33.781673670754074,55.64112198375027,89.42279565450434,273.146157050789
1215,34.112968704429704,59.77250178247492,93.88547048690462,293.42738926009747
1220,34.32327307728117,60.12528037656908,94.44855345385025,295.15920403721043
1225,34.43134632362828,66.61661431641463,101.0479606400429,327.02561608260356
1230,34.396807741946645,70.92987782961653,105.32668557156317,348.1997281596849
1235,34.38584310245042,69.34601437854043,103.73185748099085,340.4244317686275
1240,34.39180909269623,69.56718968498929,103.95899877768551,341.5101968078135
1245,34.48740133490318,79.9795823919466,114.46698372684978,392.6253604171969
1250,34.69833939831346,80.56520406447812,115.26354346279157,395.5002181417474
1255,35.08164644687245,87.43202914511149,122.51367559198394,429.20994244354614
1260,35.3070771736544,84.17875265835744,119.48582983201183,413.2393807708308
1265,35.472460772109386,82.73908632761908,118.21154709972846,406.17195812267795
1270,35.477273927553064,88.76486378509286,124.24213771264593,435.752920854395
1275,35.322686566564734,94.95609096816233,130.27877753472706,466.1460878537536
1280,34.811925912964874,110.40802521804024,145.2199511310051,542.0007131538731
