#"Step","Potential Energy (kJ/mole)","Kinetic Energy (kJ/mole)","Total Energy (kJ/mole)","Temperature (K)"
1,18806.331576200813,60.13308600981429,18866.464662210627,301.34747082050535
2,18805.566936199386,60.90603462611218,18866.4729708255,305.220980830578
3,18804.62088306552,61.83364849164386,18866.454531557163,309.8695713291661
4,18803.52989274136,62.93535373243715,18866.4652464738,315.39059328118384
5,18802.259874591673,64.18275819664304,18866.442632788316,321.6417638982598
6,18800.84134242851,65.606652977174,18866.447995405684,328.77738788332334
7,18799.20972451887,67.21424267022198,18866.423967189094,336.83356993321945
8,18797.454669936473,69.00183901942638,18866.4565089559,345.79182693324765
9,18795.514681686665,70.9308944743599,18866.445576161026,355.4589839177044
10,18793.411128367377,73.02193487585463,18866.433063243232,365.9379028986974
11,18791.144175811925,75.2910562816282,18866.435232093554,377.30924672932895
12,18788.71372469377,77.71260360210971,18866.426328295882,389.4444489768932
13,18786.10942049991,80.32292696740538,18866.432347467315,402.5256725819338
14,18783.32889265871,83.10694418377139,18866.43583684248,416.4773355106536
15,18780.383830367933,86.04897535381804,18866.43280572175,431.2208604317586
16,18777.278900298068,89.16122799085443,18866.440128288923,446.8174233717064
17,18774.00093626814,92.42831320282667,18866.429249470966,463.1899053265195
18,18770.597341291894,95.86875325261798,18866.46609454451,480.43112769360334
19,18766.980414287675,99.48041434676144,18866.460828634437,498.5303973037364
20,18763.211140188487,103.26363650751443,18866.474776696003,517.4894181248021
21,18759.270496475856,107.19927670946943,18866.469773185327,537.212257905968
22,18755.174747780715,111.30682620483978,18866.481573985555,557.7965939817497
23,18750.920648849013,115.56296737727713,18866.48361622629,579.1255737976148
24,18746.479682918056,119.99588933109337,18866.47557224915,601.3404626012461
25,18741.891824201044,124.59172684501786,18866.48355104606,624.3717770243427
26,18737.150402948755,129.3500363980899,18866.500439346844,648.217294431603
27,18732.224627361426,134.26193761080143,18866.486564972227,672.832512202552
28,18727.147071936273,139.34814889746536,18866.495220833738,698.3212574009065
29,18721.904819819716,144.59072594004152,18866.495545759757,724.593604908635
30,18716.484368038335,150.00048755109714,18866.48485558943,751.7037714975809
31,18710.92722346485,155.56802016842335,18866.49524363327,779.6045825863066
32,18705.204467491218,161.2951844362675,18866.499651927486,808.3053624998258
33,18699.302447737467,167.20645217733232,18866.5088999148,837.9287479156682
34,18693.263653722963,173.23224224469118,18866.495895967655,868.126043896745
35,18687.04416818216,179.45252457904868,18866.49669276121,899.2980071806878
36,18680.68413804935,185.8098927118174,18866.49403076117,931.1569543095956
37,18674.15427855026,192.33072946616122,18866.48500801642,963.83509863823
38,18667.463966929652,199.01073402413277,18866.474700953786,997.3108872961684
39,18660.619801917215,205.85588885270295,18866.47569076992,1031.6143004725307
40,18653.60875194759,212.86575551921743,18866.47450746681,1066.7431410312597
41,18646.437517318926,220.03761737680094,18866.475134695727,1102.6837949252592
42,18639.134706085857,227.37277561923105,18866.507481705088,1139.4427828818018
43,18631.646317969782,234.82807922834394,18866.474397198126,1176.8038603831042
44,18624.012893207895,242.44794880459017,18866.460842012486,1214.9896342582242
45,18616.22776508935,250.2530778043264,18866.480842893674,1254.1038064980196
46,18608.277050293716,258.19224366299414,18866.46929395671,1293.8896833037359
47,18600.195865467183,266.27963558472965,18866.475501051915,1334.4183716326772
48,18591.9489130914,274.5312996826427,18866.480212774044,1375.770284048425
49,18583.524101730793,282.9529128883324,18866.477014619126,1417.9738695978006
50,18574.985498934348,291.5487982683619,18866.53429720271,1461.050792646654
51,18566.252946658376,300.25318238593604,18866.506129044312,1504.6714399963182
52,18557.39931249005,309.1413239819538,18866.540636472004,1549.2129589500826
53,18548.38120692117,318.15496121315533,18866.536168134327,1594.3833794748634
54,18539.209225865452,327.3018690770944,18866.511094942547,1640.221664743914
55,18529.901179712462,336.63657793287905,18866.537757645343,1687.001085046364
56,18520.442033229116,346.1210424585531,18866.563075687667,1734.5309822552351
57,18510.840137403746,355.7234740162998,18866.563611420046,1782.6520526287345
58,18501.082217017647,365.50880837558714,18866.591025393234,1831.689711527913
59,18491.181759301136,375.40906209019266,18866.590821391328,1881.3032706406245
60,18481.12248045275,385.4615170385287,18866.583997491278,1931.679562217008
61,18470.904548224302,395.6394154547211,18866.54396367902,1982.6844939360788
62,18460.57207786503,406.0035097014118,18866.57558756644,2034.6225166757713
63,18450.086424443627,416.51403020223785,18866.600454645864,2087.294331480254
64,18439.448153258025,427.14213442146735,18866.590287679493,2140.555398533404
65,18428.685798175196,437.907283757114,18866.59308193231,2194.503245560126
66,18417.74626015968,448.8060910135462,18866.552351173228,2249.1208981640516
67,18406.69759736373,459.8322261769476,18866.529823540677,2304.376634479892
68,18395.50234703341,471.0374854002891,18866.539832433697,2360.53002275421
69,18384.168512530912,482.3895208533283,18866.55803338424,2417.418956940621
70,18372.67465304025,493.83800307056424,18866.51265611081,2474.791218865354
71,18361.074396355354,505.4409843898671,18866.515380745223,2532.9377286582962
72,18349.30938296517,517.1723843321878,18866.48176729736,2591.7277881145023
73,18337.415963059513,529.0962063949,18866.512169454414,2651.4821406605474
74,18325.41038836999,541.1414015741847,18866.551789944173,2711.8447354261702
75,18313.2311419186,553.2807187185595,18866.51186063716,2772.679007566275
76,18300.943511111593,565.6078009479447,18866.55131205954,2834.4542347983406
77,18288.511017139106,578.0408538195729,18866.55187095868,2896.7605171805767
78,18275.952694688014,590.5626425434359,18866.51533723145,2959.511485282712
79,18263.24883114733,603.2763406105611,18866.525171757894,3023.2241767730243
80,18250.415241822036,616.0994611126288,18866.514702934666,3087.485221527887
81,18237.457911566493,629.1039300661549,18866.561841632647,3152.6550654282864
82,18224.35721984953,642.2745584253164,18866.63177827485,3218.657590968093
83,18211.152058500647,655.4894752946287,18866.641533795275,3284.882061387265
84,18197.792194036887,668.8575170203793,18866.649711057267,3351.8738928595503
85,18184.33282845091,682.3672056313073,18866.70003408222,3419.575565343336
86,18170.736937411435,695.9529445938525,18866.68988200529,3487.6583521625985
87,18157.0027530781,709.7063474193128,18866.709100497414,3556.5813599715048
88,18143.159943168437,723.5604233183514,18866.72036648679,3626.0088750012374
89,18129.177793399027,737.5474232032251,18866.72521660225,3696.1025176089943
90,18115.08682237366,751.7100772142081,18866.79689958787,3767.0764231494322
91,18100.86744698974,765.9159177137142,18866.783364703457,3838.2667509617618
92,18086.53204065379,780.3028625512131,18866.834903205003,3910.364654583519
93,18072.059733412225,794.7892817608523,18866.849015173077,3982.961058323015
94,18057.480929713016,809.3420199134551,18866.822949626472,4055.8898089792547
95,18042.793266900106,824.0709505760611,18866.864217476166,4129.701520594097
96,18027.96980659259,838.9146308411363,18866.884437433728,4204.088281732858
97,18013.052920631126,853.8459589410651,18866.898879572193,4278.914276164115
98,17998.00196261308,868.9083454073614,18866.910308020444,4354.397048915851
99,17982.82544281195,884.060986154649,18866.886428966598,4430.332116753573
100,17967.56654253349,899.3485018865391,18866.915044420028,4506.943089291752
