#"Step","Potential Energy (kJ/mole)","Kinetic Energy (kJ/mole)","Total Energy (kJ/mole)","Temperature (K)"
20,-2.7694950293094607,9.592470491469271,6.82297546215981,47.0901081421961
40,-2.5155511350073985,23.54890224960805,21.033351114600652,115.60320717694442
60,-1.9276168191236123,24.90566773574274,22.978050916619125,122.26366378429081
80,-0.8933759328997295,35.482560739347534,34.589184806447804,174.18637084824536
100,0.5624708821295397,40.555912066672185,41.118382948801724,199.09180713387516
120,2.426776667643049,37.41381240818753,39.84058907583058,183.667020282231
140,4.406802293886331,33.91507840245807,38.3218806963444,166.49149049174596
160,6.69673914032337,33.53091888402598,40.22765802434935,164.6056245635777
180,8.76535189367301,35.06382684787609,43.8291787415491,172.13077690612914
200,10.895808993731888,38.870402613600234,49.766211607332124,190.81752341411416
220,13.216121811131387,42.71368028831288,55.92980209944427,209.6844421587332
240,15.29576386845543,48.706480292977496,64.00224416143293,239.10351626953457
260,17.177223897808215,50.36672269524186,67.54394659305008,247.25376227075145
280,18.44570218279777,53.638731475644555,72.08443365844232,263.31628208234775
300,19.948033210643445,54.97956174364902,74.92759495429246,269.89851159004456
320,21.790117998470862,57.83926927712983,79.62938727560069,283.9370157612508
340,23.653963233811524,42.22894148615687,65.8829047199684,207.30482549642028
360,23.143072460965534,44.52301320290858,67.66608566387411,218.56658390619205
380,21.147781019675133,47.397274144146515,68.54505516382164,232.6765317733398
400,18.439472487885446,49.19863086996617,67.63810335785162,241.5195178525732
420,15.947751195140905,52.61480764438805,68.56255883952896,258.2897684239403
440,14.180078822828909,43.96465149579139,58.1447303186203,215.82554725729193
460,13.137174327462864,48.028282524280975,61.16545685174384,235.7741960179772
480,13.35359513276823,39.741486916446775,53.09508204921501,195.0937371442989
500,14.786510547070787,37.85795313910872,52.644463686179506,185.84733817510673
520,16.955321534997402,46.9516101208836,63.906931655881,230.48873593188264
540,19.369750414170657,44.750069961500294,64.11982037567095,219.6812214050521
560,22.51641607020897,46.34377295309556,68.86018902330453,227.50482078828747
580,25.94034510154091,40.49766412645201,66.43800922799292,198.80586392388898
600,28.947323557013107,47.33708393643547,76.28440749344858,232.3810538364793
620,30.86760606157229,55.85814726164819,86.72575332322049,274.2115493097375
640,30.666657134869908,53.189007706447065,83.85566484131698,261.1085566643275
660,30.1529050716956,52.79997435889836,82.95287943059395,259.19876476835236
680,31.29146239650957,65.56043111370897,96.85189351021855,321.84073891486963
700,31.366709322503993,76.5741020775195,107.94081140002349,375.90761951561086
720,31.7805755887575,71.49094799251179,103.27152358126929,350.95406080731664
740,33.51699655751636,70.84104534444313,104.3580419019595,347.7636432807087
760,34.08408206538083,61.08415163755049,95.16823370293132,299.8663700810585
780,32.95132794699344,58.144808827919576,91.09613677491302,285.43693077284274
800,32.63011633970649,61.000326400163516,93.63044273987,299.45486613146505
820,32.6803409341116,58.8324650287537,91.5128059628653,288.8126831288941
840,31.512025044562,61.15081627897618,92.66284132353817,300.19363146557754
860,29.698200355816166,67.42979418029145,97.12799453610762,331.0175728744509
880,26.639033204210783,71.11799417849845,97.75702738270923,349.1232044654023
900,24.442994175247122,74.24647746734087,98.68947164258799,364.4811476067085
920,23.75739632866096,72.53278995514842,96.29018628380938,356.06853582512014
940,24.21821489805659,74.79845960326779,99.01667450132437,367.1908664947129
960,25.655197557461758,68.91892259409697,94.57412015155873,338.3278083457073
980,28.051026398351755,62.550113546191035,90.6011399445428,307.06287955915536
1000,31.353048117252147,62.29690731849345,93.6499554357456,305.81987248864516
1020,36.68002403756704,61.87453551196474,98.55455954953177,303.7464197672279
1040,44.21472689621907,52.04602515928077,96.26075205549984,255.49757544748985
1060,52.37786837305626,38.842495368073216,91.22036374112947,190.68052479514662
1080,55.15728353548265,34.10728170688176,89.2645652423644,167.43502994789
1100,53.39605028200886,41.461726721304565,94.85777700331343,203.5385145885771
1120,47.27896189581385,45.21141854330332,92.49038043911716,221.9460138407102
1140,40.91357289000698,55.39614305804482,96.3097159480518,271.9435383808345
1160,36.630158896728936,54.22559395487432,90.85575285160326,266.1972310137105
1180,33.40893545610292,53.6996858531855,87.10862130928842,263.61551138231755
1200,31.53779478005413,63.12374418638534,94.66153896643947,309.87887246780696
1220,30.26885917720723,72.41578223484531,102.68464141205254,355.4941367474847
1240,30.57668166866805,80.56550852959077,111.14219019825882,395.501712782267
1260,33.11012992703616,83.02945147244915,116.13958139948531,407.59738091474514
1280,37.36321759383684,66.68987062848034,104.05308822231717,327.38523643904256
1300,44.24335803189598,61.298241451458836,105.54159948335482,300.9173519420975
1320,51.49938118951068,59.934676282551145,111.43405747206182,294.2235152167306
1340,56.89418141635865,55.10656439973883,112.00074581609748,270.5219765060882
1360,59.23153068195884,48.549691621667904,107.78122230362675,238.33382972277835
1380,57.787182787021976,36.29038844625899,94.07757123328096,178.1520535274418
1400,53.17108807681139,48.34658512116548,101.51767319797688,237.33676571496642
1420,46.39796005896575,54.75745949061446,101.15541954958022,268.80819610527726
1440,38.89690506149218,61.1452004970351,100.04210555852728,300.16606319949386
1460,31.775593362657183,71.25085789345438,103.02645125611156,349.77544172909916
1480,26.869647795269774,72.16424809803299,99.03389589330276,354.25933808800687
1500,24.82489806020396,76.17496976713971,100.99986782734368,373.9482511051953
1520,24.639968717263354,87.9809344984965,112.62090321575985,431.90455719098975
1540,27.009952121820945,97.16693842451456,124.1768905463355,476.99929255197094
1560,32.22140204748947,84.50118133685875,116.72258338434821,414.822205690884
1580,38.138498095704826,70.04777582078823,108.18627391649306,343.8694277407143
1600,43.85869693776779,60.51173313726457,104.37043007503236,297.05632765194395
1620,46.81334353301288,67.8015685995336,114.61491213254648,332.8426394849955
1640,49.1709037275484,66.8345859522905,116.00548967983889,328.0956540790148
1660,51.644580726208936,55.43781997231781,107.08240069852675,272.14813326615564
1680,53.40490143443159,47.114189718405015,100.51909115283661,231.28685054018993
1700,53.73365497237026,54.43008071422477,108.16373568659503,267.2010708086854
1720,54.550650951774564,42.97550838220173,97.5261593339763,210.96977457303205
1740,54.67215994019364,47.2739822952463,101.94614223543994,232.0712834691698
1760,51.465878263813615,63.3149080103062,114.7807862741198,310.8173090415045
1780,46.04038257552721,62.683305717472955,108.72368829300017,307.7167292379151
1800,44.17782925105935,81.90869694611298,126.08652619717233,402.09551860586856
1820,41.92136088224717,77.12146863096561,119.04282951321278,378.5946801865946
1840,39.090003202848266,84.04255350686762,123.13255670971589,412.570769616047
1860,37.161796781043705,89.2947174365909,126.4565142176346,438.3540094655895
1880,36.65937074086542,76.86710139125023,113.52647213211566,377.345973626936
1900,36.191571072474616,78.48202621493087,114.67359728740549,385.2737524672533
1920,36.96513297167219,69.95532020376483,106.92045317543702,343.4155566542348
1940,38.3859852960814,60.83824558374565,99.22423087982705,298.6592000744592
1960,41.4670698055414,54.27515243050082,95.74222223604221,266.44051703462554
1980,46.19508614750995,46.37550785247531,92.57059399998525,227.66060962756544
2000,49.71309183657517,47.49947335139311,97.21256518796827,233.17823482528755
2020,52.195004144242844,33.58564226905894,85.78064641330178,164.8742654857886
2040,52.72562712076348,39.0549850693599,91.78061219012338,191.72365159148043
2060,50.64639172402993,45.32849608793137,95.97488781196131,222.52075569083743
2080,45.96525391604841,66.95888914372618,112.9241430597746,328.7058671343828
2100,40.213006535410344,61.18564240016883,101.39864893557917,300.3645953288069
2120,34.86148159979162,70.0569950292541,104.91847662904571,343.91468547948233
2140,31.26217868483212,76.92107689422258,108.1832555790547,377.6109431438355
2160,30.151821381991567,79.82593914784205,109.97776052983362,391.8711149924509
2180,29.99183378039955,78.63101676034273,108.62285054074228,386.00515746890005
2200,30.92288730715209,81.75042833727552,112.67331564442762,401.31856694234256
2220,32.98505599381967,83.46299481404097,116.44805080786064,409.7256754826611
2240,36.15390417268556,72.70258356094674,108.85648773363229,356.90206450430725
2260,39.44208374653478,68.93083200532013,108.3729157518549,338.3862724778521
2280,42.741621789305626,77.74445860518638,120.486080394492,381.6529815161269
2300,47.66668994034374,68.33668782105673,116.00337776140046,335.4695771474988
2320,52.321009394062834,54.4575076971084,106.77851709117124,267.33571178476694
2340,55.96514976900841,48.70438504233927,104.66953481134769,239.09323053769657
2360,57.218018642096595,45.92024269202139,103.13826133411798,225.42568113253228
2380,53.65966678661611,61.49441022506541,115.15407701168152,301.88035816364084
2400,48.30136118216447,58.50022276879425,106.80158395095873,287.181682651508
2420,43.125633870559945,56.361208059465774,99.48684193002572,276.6811099294336
2440,38.38668929928044,61.92884706935046,100.3155363686309,304.0130389987323
2460,33.782365639732056,59.480623244289276,93.26298888402133,291.99453711426384
2480,28.682230653422426,62.75861017543829,91.44084082886071,308.08640408573774
2500,23.346376749946174,79.52345524954488,102.86983199949105,390.38620039253067
2520,19.265778155707757,75.63166034233606,94.89743849804381,371.2811071623048
2540,16.364861480369193,82.58580163961986,98.95066311998906,405.41947287491564
2560,14.351055839632469,88.01198990285157,102.36304574248403,432.05701034169584
2580,13.50664738085312,81.96640940082764,95.47305678168077,402.3788330800785
2600,14.563662340434881,72.93284887750406,87.49651121793895,358.032453038494
2620,17.084369110863644,64.10600373662928,81.19037284749292,314.70085325845173
2640,19.974626468563162,68.45680919104626,88.43143565960942,336.0592613490844
2660,22.778977133277724,55.86823477586996,78.64721190914769,274.2610696221546
2680,23.979178481326795,61.38410082704424,85.36327930837103,301.33884161829036
2700,23.582399746272685,61.69603554963544,85.27843529590812,302.87015097526864
2720,22.080869919547073,61.946716980224906,84.02758689977198,304.1007636402955
2740,21.04714763668372,69.11129514538176,90.15844278206548,339.2721786465226
2760,20.64589753396365,61.11632454140473,81.76222207536838,300.02430911491757
2780,20.50186964888416,66.55438898237327,87.05625863125744,326.7201475683352
2800,21.04704004229466,60.78308463252348,81.83012467481814,298.3884111092402
2820,22.294775657158176,59.80127402981695,82.09604968697514,293.5686342334373
2840,24.445833560032483,69.23101773492525,93.67685129495773,339.85990520702444
2860,27.463889163154544,61.933692141510726,89.39758130466527,304.03682379663053
2880,30.747738883429854,54.66437749947991,85.41211638290977,268.3512501045035
2900,33.78180657290452,47.59636995513643,81.37817652804095,233.65390702599353
2920,38.03612462958553,46.66155827299927,84.6976829025848,229.06485113642108
2940,41.784286004681114,32.73609866662847,74.52038467130959,160.7037965596096
2960,41.516017381675375,33.621742674365,75.13776005604038,165.0514848988013
2980,37.71289790620138,36.889317558323825,74.6022154645252,181.09223840283178
3000,32.85406816947638,42.97051617679892,75.82458434627529,210.94526748776184
3020,28.437934956970917,52.13627400599749,80.57420896296841,255.94061334428386
3040,24.196846935863903,61.37993102849069,85.57677796435459,301.3183717857281
3060,21.903187107923355,62.88294293870158,84.78613004662493,308.6967623112745
3080,21.33187900563488,69.64366230727384,90.97554131290872,341.88560625593215
3100,22.221021286587206,65.79404866766993,88.01506995425713,322.98758381678726
3120,23.949452206780354,61.173524949855,85.12297715663536,300.30510991822433
3140,25.7894853346083,60.56480498369747,86.35429031830577,297.31686105572703
3160,27.631691260616904,70.12567311835856,97.75736437897547,344.25183101939353
3180,27.392697161221463,65.63135768667502,93.02405484789648,322.18892241922305
3200,25.63623121738116,66.85707506089093,92.49330627827209,328.20605468508995
3220,24.224764942453263,61.56313462273359,85.78789956518685,302.21773103552823
3240,23.70583428278724,58.41142650854493,82.11726079133217,286.7457756032162
3260,24.161231715790844,57.01124532747321,81.17247704326405,279.8721883147307
3280,24.95682517721789,53.78716151478543,78.74398669200332,264.0449355195317
3300,25.375960532074398,55.4080423522892,80.7840028843636,272.00195284802334
3320,26.046841777448805,60.15590622470215,86.20274800215095,295.3095484663974
3340,26.32806596296686,63.40550539046429,89.73357135343116,311.26205791332416
3360,28.104387069977943,58.06632973324868,86.17071680322663,285.05167141153004
3380,30.359387173514072,52.089908547174815,82.4492957206889,255.71300206604596
3400,32.243675668155134,52.225211260723555,84.46888692887869,256.37721254431733
3420,35.69859555833473,56.51407174318657,92.2126673015213,277.43152843776556
3440,39.86738518010511,61.69959101801146,101.56697619811658,302.88760501804853
3460,42.96190384313356,62.29655684459369,105.25846068772725,305.81815198777366
3480,44.189283735640956,46.120792492437346,90.3100762280783,226.41019412091018
3500,43.403630591480976,49.40873188212763,92.8123624736086,242.55091840702542
3520,40.45828394150855,52.61442794950741,93.07271189101596,258.28790447523113
3540,35.56132644336967,64.69968621137606,100.26101265474574,317.6152820245152
3560,29.894512954784005,54.093590465969065,83.98810342075308,265.54921665982494
3580,25.51120101664614,52.43427588987822,77.94547690652436,257.40352542214754
3600,22.074982959412978,47.08172300573261,69.15670596514559,231.1274691783057
3620,19.288698282130188,51.97735977567313,71.26605805780332,255.16049227975068
3640,16.85348520513786,51.39107270582879,68.24455791096665,252.28236807328125
3660,15.279303067967152,61.45962148781647,76.73892455578363,301.70957782080427
3680,14.571027945663348,60.40228644040085,74.9733143860642,296.5190461668769
3700,14.894338997766805,68.62995267195265,83.52429166971946,336.9092347993285
3720,16.79811623574846,68.23421366073377,85.03232989648222,334.9665243316804
3740,19.610515206830115,61.8265056814179,81.43702088824801,303.51063797185896
3760,22.26860173542206,44.515971438288865,66.78457317371092,218.53201539146488
3780,24.983703332025012,34.802658498527165,59.78636183055218,170.84868322389192
3800,26.523411004833665,34.517593571185174,61.041004576018835,169.44927956995107
3820,26.7948204245758,28.90691224224984,55.70173266682564,141.90605274783795
3840,26.60470568340454,41.02592845175134,67.63063413515587,201.3991504216825
3860,26.22495256742957,48.344028441061965,74.56898100849153,237.3242147936301
3880,25.60417909374786,56.45049308744473,82.05467218119259,277.1194163726743
3900,25.23778943090634,54.799854243703535,80.03764367460988,269.01631491152233
3920,24.454899659299475,67.64628875809697,92.10118841739644,332.08035988955066
3940,24.03095079002351,61.169757680025235,85.20070847004874,300.28661612730343
3960,24.491971374236968,57.24956057608166,81.74153195031863,281.0420945280348
3980,25.496589350150625,55.53264782682571,81.02923717697634,272.6136498322624
4000,27.82414429924703,66.61387488456955,94.43801918381658,327.0121680201939
4020,30.319768596037097,61.61535410565993,91.93512270169703,302.4740801272787
4040,32.22802791050721,60.50473497734309,92.7327628878503,297.0219731957283
4060,34.34798256261569,49.90757450490309,84.25555706751878,244.9997717105955
4080,36.47102978329125,47.45206269076901,83.92309247406027,232.94549257834842
4100,38.32058434480243,43.51854939421827,81.8391337390207,213.635600858789
4120,38.03340890250944,54.39192503917248,92.42533394168191,267.01376193282823
4140,36.42904812833369,56.67293061938293,93.10197874771663,278.2113777650152
4160,35.172258579712036,54.2401014709302,89.41236005064223,266.26844942408286
4180,32.94547627856882,48.269365290900225,81.21484156946904,236.95768817064177
4200,30.91465980377483,53.61424287742849,84.52890268120332,263.1960658419881
4220,28.634593857997537,53.6403468433413,82.27494070133883,263.32421203528287
4240,27.14362250854493,63.86286220164964,91.00648471019457,313.5072544680012
4260,26.420557672876065,81.62896745781755,108.04952513069361,400.72230699514665
4280,28.10058900963154,80.1874273359802,108.28801634561174,393.6456857755136
4300,31.735223628728207,68.95618104019776,100.69140466892597,338.5107126619266
4320,36.51351504994926,74.11745201771494,110.6309670676642,363.8477526558057
4340,40.40392521559068,52.54109555546818,92.94502077105886,257.9279106270661
4360,43.17928979511831,58.21340746233926,101.39269725745757,285.77368626415256
4380,44.08477033878013,63.54245560218378,107.62722594096391,311.9343560752734
4400,44.714245527900346,58.25834572254843,102.97259125044877,285.99429132463763
4420,44.04930756474623,64.70277856920217,108.7520861339484,317.63046262523477
4440,44.39942461130761,74.90138248236254,119.30080709367014,367.69612210234686
4460,45.57802870746881,74.8504693414027,120.42849804887152,367.4461859346213
4480,46.19906007551109,63.479227349752286,109.67828742526338,311.6239641645254
4500,42.542434202814626,74.98696281916102,117.52939702197565,368.1162419576302
4520,36.91161208071857,78.72874421416526,115.64035629488383,386.48490837072006
4540,32.70913306404171,84.22851313073518,116.93764619477689,413.48365840791695
4560,29.738862124056894,86.21524568552502,115.95410780958191,423.2366673890627
4580,28.125957462625628,76.89243175928091,105.01838922190655,377.47032217415403
4600,28.17751754477417,78.82433984878651,107.00185739356067,386.95419402306993
4620,28.920959232432594,88.99094607819183,117.91190531062442,436.8627746340374
4640,29.247033611264282,76.21731894063325,105.46435255189753,374.15614615801996
4660,28.89143892355709,70.94182809255648,99.83326701611357,348.25839283576295
4680,28.371837815552652,59.85134761465511,88.22318543020776,293.81444896147775
4700,27.63962887903571,71.35478086118634,98.99440974022205,350.2856068417579
4720,27.063315968360733,57.697982916521475,84.76129888488221,283.2434311413157
4740,25.92612297592633,68.211104322257,94.13722729818333,334.85307897378914
4760,24.833306728881464,72.18887259115084,97.02217932003231,354.38022144593833
4780,23.596054810310424,73.40891241106074,97.00496722137116,360.36948220086424
4800,23.350269172042797,64.03093109987361,87.38120027191641,314.33231643715135
4820,24.727108535761165,68.2135246437015,92.94063317946267,334.86496050093706
4840,26.59976755647503,57.47618959442949,84.07595715090451,282.15463222013926
4860,29.12623666909947,49.47286632710117,78.59910299620064,242.86575888030387
4880,31.010313271551816,48.550429667235534,79.56074293878734,238.33745284005818
4900,31.28350071454815,50.08611827323131,81.36961898777946,245.87625554926544
4920,29.973613095290254,53.109825375411674,83.08343847070194,260.7198450665463
4940,29.531305333060935,52.82480016393393,82.35610549699487,259.32063638055916
4960,29.317582171762723,58.6334298613254,87.95101203308812,287.8356055797232
4980,29.637232799884337,60.35996595584992,89.99719875573426,296.3112919500768
5000,29.79791961727806,51.68480696479682,81.48272658207487,253.72433008214784
5020,30.10392068266611,49.744971681300974,79.84889236396708,244.2015430838346
5040,30.77659784694331,56.185004306508034,86.96160215345134,275.816113389781
5060,32.216574250064454,59.88903329570908,92.10560754577354,293.9994506039453
5080,34.763485784429946,67.11357813694653,101.87706392137648,329.46524621463453
5100,36.701565902894465,63.330751303954784,100.03231720684926,310.8950848774483
