#"Step","Potential Energy (kJ/mole)","Kinetic Energy (kJ/mole)","Total Energy (kJ/mole)","Temperature (K)"
5,-6.656487727568021,1.5594067802462008,-5.09708094732182,11.366866889058695
10,-6.674968939060705,4.502791816490857,-2.172177122569848,32.821862682367986
15,-6.6099958197528865,5.977334980492807,-0.6326608392600797,43.57013957823691
20,-6.505333712553407,6.719766735828869,0.2144330232754621,48.981891690654194
25,-6.34883789958723,6.23102145031766,-0.11781644926957036,45.41931733646049
30,-6.10039306152881,9.726933732736683,3.6265406712078727,70.9018085462323
35,-5.783821209221019,9.28868952136798,3.504868312146961,67.70734788424772
40,-5.479354745904102,7.846116943485636,2.366762197581534,57.1921117840135
45,-5.149380242606535,10.040374271398067,4.890994028791532,73.18654715692138
50,-4.773765184915151,13.092186177735883,8.318420992820732,95.43189080247716
55,-4.327756326341477,14.743067481978958,10.41531115563748,107.46553607879432
60,-3.835548640272414,12.241707261244578,8.406158620972164,89.2325586216967
65,-3.367861603477704,13.597578242161404,10.229716638683701,99.11580727371661
70,-2.961150154105568,15.23094622666656,12.269796072560993,111.02179402195233
75,-2.4860430659226926,14.735586421153759,12.249543355231065,107.41100494319443
80,-1.9817435817557891,18.587730798879843,16.605987217124053,135.49015204818207
85,-1.495006019678899,18.2580285917701,16.7630225720912,133.0868784772838
90,-1.1631936662284126,19.459592829690457,18.296399163462045,141.84535056045482
95,-0.611331480401222,21.063868897857642,20.45253741745642,153.53927978479726
100,0.13645199250435125,25.053716498561887,25.19016849106624,182.62217666541434
105,0.9519865802838184,27.313950502448012,28.26593708273183,199.09753087430238
110,1.7314284657262973,26.460689346800912,28.192117812527208,192.87791832630916
115,2.5451991533243263,25.60064866681348,28.145847820137806,186.60888830000053
120,3.5027534077117757,28.31197778485083,31.814731192562604,206.37237629271894
125,4.572462337306999,28.531780352646983,33.104242689953985,207.97456666514873
130,5.647705228812964,26.748700794539378,32.39640602335234,194.9772985716941
135,6.662677921884574,22.20635985877123,28.869037780655802,161.86715346032867
140,7.537297351083486,20.367474980514768,27.904772331598252,148.46310783206482
145,8.381455180847738,19.466743793579337,27.848198974427074,141.89747554521375
150,9.351011349950442,21.377017731858626,30.72802908180907,155.82189209458286
155,10.188722096786305,22.45311967667605,32.64184177346235,163.6658412942046
160,10.71712627376604,23.77724855955102,34.49437483331706,173.31771465159852
165,11.172430090871906,24.922250921399616,36.09468101227152,181.66389449361256
170,11.29312903755047,19.74790360432955,31.041032641880022,143.94691266696725
175,11.169336308499332,20.398488759874574,31.567825068373907,148.689174247945
180,10.695405509782207,23.640358375512424,34.33576388529463,172.31989129973402
185,10.160818181430184,26.128722733913857,36.28954091534404,190.4581389922068
190,9.85340018705133,27.49043192631172,37.34383211336305,200.38394368131455
195,9.711864455100498,27.009128622835924,36.72099307793642,196.8756156086292
200,9.271182888167376,27.825626185993684,37.09680907416106,202.82725005912823
205,8.699398459595994,30.85692489464194,39.55632335423793,224.92306839123796
210,8.003394865876603,30.126473665831682,38.12986853170828,219.59864503229588
215,7.180068402787089,34.003316660308386,41.18338506309547,247.85782591198847
220,6.286298682617218,37.38190460784347,43.66820329046068,272.4851136467167
225,5.448728887294771,36.71859835926111,42.16732724655588,267.6501251563331
230,4.600521383909898,36.969858238435606,41.570379622345506,269.4816149493213
235,3.866122756253136,41.56713983644832,45.43326259270145,302.9922349094828
240,3.076550637108937,36.865603609255366,39.942154246364304,268.72167949984674
245,2.568368947646332,37.21773315942962,39.786102107075955,271.2884310205134
250,2.2390509079962966,34.24366672997592,36.482717637972215,249.609791648764
255,1.9228003260449797,36.86305613044376,38.78585645648874,268.7031103536041
260,1.6274653713721263,41.36272490906722,42.99019028043934,301.50220851027046
265,1.6821856746295074,46.643587031672226,48.325772706301734,339.9956007203812
270,2.0154466355746576,52.7510178808243,54.766464516398955,384.514038356956
275,2.4391019328691828,50.35431456718246,52.79341650005165,367.0439286435485
280,3.0347701937368283,50.25686676987935,53.29163696361618,366.33360972316933
285,3.8326462298053228,47.2999298106639,51.13257604046922,344.7798309141318
290,4.713360487688178,49.501421769146646,54.21478225683482,360.8270011370647
295,5.7460687016715335,46.87543797042623,52.621506672097766,341.6856143796164
300,6.826943703905848,46.591822131691956,53.4187658355978,339.6182747172788
305,8.09818838075783,40.37828420084152,48.47647258159935,294.3263986880215
310,9.228040312732578,35.874157307549886,45.10219762028247,261.4948043304593
315,10.226207271184409,33.89832503581975,44.12453230700416,247.0925183378865
320,10.938990449719908,32.56589245873123,43.50488290845114,237.38011748503178
325,11.386876381432177,34.056271165903894,45.44314754733607,248.24382321808264
330,11.631487249902777,38.81343218761634,50.44491943751912,282.9198402705971
335,11.819852031658057,41.16242518208225,52.98227721374031,300.0421787326691
340,12.011820616909075,44.71790822980253,56.72972884671161,325.95889465419435
345,12.287610825280053,47.74220599980037,60.029816825080424,348.0036815692641
350,12.720535030022743,50.33304838234413,63.053583412366876,366.88891463735234
355,13.335211655056325,51.38137430822432,64.71658596328065,374.53039818531283
360,14.19885708741168,45.54737121339479,59.74622830080647,332.00503697147093
365,15.109020982133163,42.27920824505449,57.38822922718765,308.1826617558072
370,15.920217861274878,37.75294569592909,53.67316355720397,275.18971562233133
375,16.958239582711897,37.24725782852098,54.20549741123288,271.50364297659587
380,18.428785765715737,37.389268292552416,55.81805405826815,272.53878920139545
385,19.949512464703353,36.47914354987888,56.42865601458223,265.9046851732114
390,21.094132921529553,36.00116417695803,57.09529709848758,262.42058597822825
395,22.221916097649206,38.496220202136115,60.71813629978532,280.6076107354668
400,23.201530479340363,40.478071185673706,63.67960166501407,295.0537684726193
405,24.24339727409154,38.9476866366739,63.19108391076544,283.8984511571422
410,25.22501982116425,34.91703241053785,60.142052231702095,254.51810560222742
415,25.795859158826673,27.811467440810247,53.60732659963692,202.72404377975653
420,25.913136396963925,29.64572622946535,55.558862626429274,216.09436880004202
425,25.672735705652713,31.222337325596243,56.895073031248955,227.58664181856983
430,25.14883770345493,29.83531050841841,54.98414821187334,217.4762912659539
435,23.991891179907284,41.24074702961304,65.23263820952033,300.6130843018029
440,22.563837902180875,39.05094700847583,61.61478491065671,284.6511392408774
445,21.058455667080057,46.036696112019825,67.09515177909988,335.57183625606484
450,19.606794202013752,46.122556938550176,65.72935114056392,336.1976951394031
455,18.293508010334264,46.96854359536343,65.26205160569769,342.364282228628
460,16.884035829434495,43.90515057468938,60.789186404123875,320.0345212349149
465,15.681115120813729,48.40639081018441,64.08750593099813,352.8450740942973
470,14.69528981717191,52.65069358761709,67.345983404789,383.78275201071784
475,14.025674362221338,51.7810766995152,65.80675106173653,377.443918848808
480,13.688867820981805,55.285553648080466,68.97442146906226,402.98883983717695
485,13.650434318355373,55.71578954321199,69.36622386156736,406.1249260802308
490,14.227894112379989,56.45692733918527,70.68482145156526,411.5272462317108
495,15.290143347494839,58.22644325927068,73.51658660676551,424.4256459157917
500,16.588096605988447,53.047184395929435,69.63528100191789,386.6728627232736
505,18.27555448728513,53.04940558377247,71.3249600710576,386.6890534612306
510,20.27236731085125,41.60828699040968,61.88065430126093,303.2921657728516
515,22.470899608984144,39.92216157920382,62.39306118818796,291.0016182709288
520,24.53698528791156,38.53036721851949,63.06735250643105,280.85651602099273
525,26.384760677056324,31.657634382215814,58.04239505927214,230.7596200064757
530,28.000132197582666,30.63227159654551,58.63240379412818,223.28551995423106
535,28.54059212857771,31.93546194622927,60.47605407480698,232.7847676320066
540,28.2729970106006,30.54380498888355,58.816801999484156,222.6406669459215
545,27.70903009914128,31.166190862420088,58.87522096156137,227.17737761547716
550,26.88651965506051,31.13631746060247,58.02283711566298,226.95962366808786
555,25.778075972962267,36.674820957615644,62.45289693057791,267.3310218257869
560,24.292795018338477,37.7800496933946,62.07284471173308,275.3872827582798
565,22.614750570670736,37.17353035886748,59.78828092953822,270.9662268615485
570,20.83956050864006,39.732850307716106,60.57241081635617,289.6216858178587
575,18.746926855165984,39.07259869560438,57.819525550770365,284.80896326000527
580,16.44061662249886,41.758585781448815,58.19920240394768,304.38772747809094
585,14.26107434115722,40.87219845486894,55.13327279602616,297.92665081675227
590,12.146129085519416,49.03832668893951,61.184455774458925,357.45139690065025
595,10.174609397896067,49.027482167187046,59.20209156508311,357.37234874157
600,8.483018801523494,44.80981593868366,53.292834740207155,326.6288306235411
605,7.110064143970403,42.17386484013031,49.28392898410071,307.41478997495966
610,6.097215443313599,43.853048873360166,49.95026431667377,319.6547402109994
615,5.353480622373974,48.387460595115,53.740941217488974,352.70708749734194
620,5.061606060645799,47.94742531964305,53.00903138028885,349.4995713661179
625,5.0323078102393755,56.87458213601656,61.90688994625594,414.57162601849654
630,5.536670229692949,63.48157873073672,69.01824896042967,462.7315107772323
635,6.441120901112816,64.52951890883215,70.97063980994496,470.370182522796
640,7.663706417335502,59.05382063592519,66.7175270532607,430.45658577483573
645,9.10512226667937,51.88428874857163,60.989411015250994,378.19625469717863
650,10.368163662328403,41.09215125792878,51.46031492025719,299.5299362878221
655,11.740990081647286,42.546526941617905,54.287517023265195,310.1312078819907
660,13.329891974931314,38.94777313251224,52.27766510744355,283.89908164476947
665,14.885795023574241,36.08474324365767,50.97053826723191,263.0298126007626
670,16.28857876649287,35.5063311322261,51.79490989871897,258.81363657732373
675,17.420160749956732,40.219722699084286,57.63988344904102,293.1706082252411
680,18.163024774969934,36.210563244424065,54.373588019394,263.94694289595543
685,18.61382751791601,31.53157718991732,50.145404707833336,229.84076076883713
690,18.634065433406235,31.104825494588123,49.73889092799436,226.7300716420903
695,18.33587773362129,34.966615140948164,53.30249287456945,254.87952528034447
700,17.754194228274002,38.953934898837595,56.7081291271116,283.9439961459176
705,16.886703965021244,33.10862711202583,49.99533107704707,241.33623248865203
710,15.866431793293158,37.04919474017895,52.91562653347211,270.05991656130846
715,14.73164722559416,36.932344367229156,51.663991592823315,269.2081679014447
720,13.499013493985565,35.645591367531054,49.14460486151662,259.82873576613224
725,12.40324544557793,42.77864248930906,55.18188793488699,311.823150335306
730,11.54540216734542,41.43048231030035,52.97588447764577,301.99610745333126
735,10.61544736503091,44.64398615069054,55.25943351572145,325.4200599870167
740,9.93509646551485,39.159390276040114,49.09448674155496,285.44160661798037
745,9.268546167124969,39.73740275426138,49.00594892138635,289.6548696250315
750,8.711795660802993,37.91863896145735,46.63043462226034,276.3974911158917
755,8.40681624367556,39.49580492146922,47.90262116514478,287.8938086620928
760,8.274983464250905,37.46917923488884,45.74416269913975,273.12127804011527
765,8.212360073909094,33.87905449308424,42.091414566993336,246.95205101599896
770,8.197908300625674,33.94201902400031,42.13992732462599,247.41101364891887
775,8.276151356796664,34.4766844687792,42.75283582557586,251.30831037608937
780,8.487322898342336,30.91163235053541,39.39895524887775,225.3218433464693
785,8.85618973287174,28.658713749123297,37.514903481995034,208.8998127521861
790,9.111651866051254,30.31294621532139,39.42459808137264,220.95788540200766
795,9.353375118158349,31.92489709819108,41.27827221634943,232.7077580775565
800,9.626295190072414,31.84051281009998,41.46680800017239,232.0926620151243
805,9.723953644873484,34.03540466209896,43.759358306972445,248.0917225768675
810,9.80770371586786,33.92740618092912,43.73510989679698,247.30449734787095
815,10.129435218291457,31.381588249659146,41.5110234679506,228.7474576356569
820,10.437620768464448,31.66395628062917,42.10157704909362,230.80570174644313
825,11.093083875962707,28.949992760248726,40.04307663621143,211.02301100230315
830,11.870559671856212,28.772570359451755,40.64313003130797,209.72973920270385
835,12.39627660389549,30.037307401654854,42.433584005550344,218.94869207022614
840,12.617333737635,31.22085859863163,43.83819233626663,227.57586304500995
845,12.554361603000421,36.139995858066975,48.6943574610674,263.432561339077
850,12.714270982014567,35.11436179083971,47.82863277285428,255.9564838545251
855,12.912381331707659,36.5021596384256,49.41454097013326,266.07245462126787
860,12.886876765517961,36.69292310165344,49.5797998671714,267.4629724266761
865,12.809405615131057,36.73982198673694,49.549227601868,267.80482895233854
870,12.813538067936147,37.86505600045643,50.67859406839257,276.0069128569444
875,13.01185853711,37.23602329083162,50.24788182794162,271.4217519035976
880,13.22413935926566,39.86872491099351,53.09286427025917,290.61210637304833
885,13.60043442457278,45.17041883464541,58.77085325921819,329.2573462681628
890,14.068372100733466,40.50146448044194,54.56983658117541,295.22428746169606
895,14.338499374307176,36.860929167172564,51.19942854147974,268.68760643975185
900,14.864797545677149,32.41078468936466,47.27558223504181,236.2495020547396
905,15.311884770372881,32.483498347258156,47.79538311763103,236.7795282677598
910,15.714625172899472,32.45924198041768,48.173867153317154,236.60271815215648
915,16.144499485745627,37.052581612990686,53.19708109873631,270.08460423928244
920,16.294609522360204,34.05345923912384,50.34806876148404,248.22332645109694
925,16.173737976268384,33.24207091642145,49.41580889268983,242.3089344038605
930,16.218192713611323,34.57925681257657,50.79744952618789,252.0559832688925
935,16.3165069147063,35.36576289926123,51.68226981396752,257.7890030992715
940,16.528208370659094,31.722734314752127,48.25094268541122,231.23414806227277
945,16.62709594565665,32.75799192146546,49.38508786712211,238.78037369144315
950,16.59213599359174,32.9306364314997,49.52277242509144,240.03881837024343
955,16.504642996568812,32.80692678710389,49.3115697836727,239.1370709374678
960,16.248062986315336,32.42219883174574,48.67026181806108,236.33270230674697
965,16.132743148629032,30.15478193251662,46.28752508114565,219.80499035754633
970,16.158923701887346,30.500221503986463,46.65914520587381,222.3229771181857
975,16.057872080611016,28.90152859432539,44.959400674936404,210.6697447924097
980,15.925325283761293,26.363953002058935,42.28927828582023,192.1727853437255
985,16.060159930365472,28.243667193914533,44.303827124280005,205.87444502544355
990,16.42696083659966,31.609133728162348,48.03609456476201,230.40608782639183
995,16.820225355095285,32.167395617801546,48.987620972896835,234.47538434936916
1000,17.178717483237467,30.16256673785844,47.341284221095904,219.86173555527066
1005,17.69071805070395,32.38179469407511,50.07251274477906,236.03818745630062
1010,18.384358781097635,34.51168061000827,52.8960393911059,251.56340512366944
1015,19.179853387340117,37.00298969748826,56.18284308482838,269.72311760896235
1020,19.895722986073338,33.84804990706094,53.74377289313428,246.72605161241705
1025,20.68893053309328,36.586074070359714,57.275004603453,266.6841257964537
1030,21.478415737867998,40.402373035257654,61.88078877312565,294.50198762208885
1035,22.01732045469197,36.41297735937361,58.43029781406558,265.4223849231697
1040,22.388338970469082,35.06928821617541,57.45762718664449,255.6279324272046
1045,22.522863695460167,37.01249725808176,59.535360953541925,269.7924203573375
1050,22.635807188169316,36.30250704639951,58.93831423456883,264.6171419559877
1055,22.26122043199298,40.430975247965726,62.69219567995871,294.71047558604005
1060,21.440585395913107,41.20423291071768,62.64481830663078,300.34692467346696
1065,20.493145014049396,46.74872724725,67.24187226129939,340.7619914083651
1070,18.89594185509053,45.077072287048416,63.97301414213895,328.5769222796761
1075,16.84234014797137,45.77713229254442,62.61947244051579,333.67981717382975
1080,14.705871602749575,48.18549127724869,62.89136287999826,351.2348876961471
1085,12.86172815719454,47.357965045754995,60.219693202949536,345.20286280068774
1090,10.642293950727572,52.595463750644214,63.237757701371784,383.3801693022625
1095,8.699707623542539,47.294022468719405,55.99373009226194,344.73677096954145
1100,6.832371641505547,42.97906375666749,49.81143539817304,313.28406604803627
1105,5.2501748406611,49.86550290245258,55.115677743113686,363.48087043629454
1110,4.003738687748427,44.671159018904284,48.674897706652715,325.618129137345
1115,3.0464401788462077,49.130957599667596,52.17739777851381,358.1266044509805
1120,2.499140011433907,50.44024128753511,52.93938129896902,367.67026784178364
1125,2.254889804701234,51.87271578483637,54.12760558953761,378.11189676058575
1130,2.3194192843670383,52.59146370726282,54.910882991629855,383.35101208604243
1135,2.7088027775363663,52.10224685237636,54.81104962991273,379.785000356569
1140,3.372657834111505,49.78810308300219,53.1607609171137,362.91668573729584
1145,4.224703455182686,51.79996784035421,56.0246712955369,377.5816206249063
1150,5.3357801538758975,47.96868769272225,53.30446784659814,349.65455758754405
1155,6.8025216411695775,44.96875510142936,51.771276742598936,327.7873739422405
1160,8.27049166512123,42.07763650237539,50.348128167496625,306.7133599696067
1165,9.673939971075608,36.229280824559716,45.90322079563532,264.08337954903556
1170,11.352545770524902,38.834091556136556,50.186637326661454,283.0704310561163
1175,12.940481088090282,33.184659638038276,46.125140726128556,241.8904506781394
1180,14.290656552354555,31.231124082455867,45.521780634810426,227.65069046634736
1185,15.42409113512214,32.45634655009559,47.88043768521773,236.58161270906453
1190,16.528648817201972,32.426848556812494,48.95549737401447,236.36659519895062
1195,17.38853039062764,28.34729003018993,45.735820420817575,206.6297751942807
1200,18.389638135663944,30.503441484336584,48.89307962000053,222.346448279456
1205,19.54571328314013,31.28691073786076,50.832624021000896,228.0573319496383
1210,20.675876248859204,26.164229667995095,46.8401059168543,190.71695702381513
1215,22.061751305121362,25.62341588595685,47.68516719107821,186.7748436829801
1220,23.217802161259016,25.375340502414268,48.593142663673284,184.96656639516718
1225,24.49475711621546,25.491354553861676,49.986111670077136,185.812218919427
1230,26.04155496814798,25.959380670370834,52.00093563851881,189.2237665889342
1235,27.58228867377133,24.670510180501054,52.252798854272385,179.82889959132336
1240,28.82031066439144,28.4478964404801,57.268207104871536,207.36311795541314
1245,29.68493412205792,25.999546599237938,55.684480721295856,189.51654508181448
1250,30.125943050432486,26.55680251242552,56.682745562858,193.57850881609045
1255,30.19216911280468,25.038732389635747,55.23090150244043,182.51295412401453
1260,29.612543582670277,24.471561588341324,54.0841051710116,178.37871853946962
1265,28.367144264525756,28.0102661224203,56.37741038694605,204.17313209988365
1270,26.66239368463801,28.626178203718723,55.28857188835673,208.66265384120695
1275,25.108545151004925,31.01592112933696,56.124466280341885,226.08202772021724
1280,23.653951444155396,34.12739117729591,57.78134262145131,248.76223298318178
