#"Step","Potential Energy (kJ/mole)","Kinetic Energy (kJ/mole)","Total Energy (kJ/mole)","Temperature (K)"
5,-2.642851201107756,1.6704002614501052,-0.9724509396576508,12.175923347181078
10,-2.6315740371310654,3.4957340242065884,0.864159987075523,25.481191845553145
15,-2.5871326431137884,6.219855801052451,3.6327231579386625,45.337928406685855
20,-2.5173094747689255,6.302648097872017,3.785338623103091,45.94142008654046
25,-2.3679150110608704,9.159844144434084,6.7919291333732135,66.7681649414578
30,-2.0840963852322307,12.654971389770175,10.570875004537944,92.24493383929813
35,-1.652012848614244,14.612834058341353,12.960821209727108,106.51623535126937
40,-1.117331673449093,13.234484303167356,12.117152629718262,96.46913385594571
45,-0.5175115984527939,10.886650065162879,10.369138466710085,79.35524183044227
50,0.23037965075031752,12.691262770080431,12.921642420830748,92.50946987597084
55,1.0939498507178729,12.20935231139609,13.303302162113964,88.99671611235998
60,1.9458631970507763,13.252570685169859,15.198433882220636,96.6009695638132
65,2.7237614453516357,13.451278924222642,16.175040369574276,98.04939862779074
70,3.43642015377237,11.629217280817711,15.06563743459008,84.76798134360176
75,4.258468353386748,12.508916571211053,16.7673849245978,91.180307404363
80,5.153904612889262,13.45651514178881,18.61041975467807,98.08756659578391
85,5.952622058241554,16.113008663148253,22.06563072138981,117.45134558626145
90,6.690330071920929,15.338929967505779,22.02926003942671,111.8089118053624
95,7.282506992096435,11.680133396157121,18.962640388253554,85.13912036447971
100,7.816607811547545,11.869154996544875,19.68576280809242,86.51694133972597
105,8.235357584144667,14.471818202919557,22.707175787064223,105.4883390524132
110,8.68993485305791,12.28387677083947,20.97381162389738,89.53994166530917
115,9.04979179041931,10.242357595942213,19.292149386361523,74.65884905594247
120,9.270293228378348,12.648834992069018,21.919128220447366,92.20020425575972
125,9.598139432316149,12.276347892800107,21.874487325116256,89.48506197927632
130,9.84580278045345,11.925652536362268,21.771455316815718,86.92876461944918
135,10.004023948742704,12.510433420672864,22.514457369415567,91.19136406138257
140,10.13648150822288,16.873599053793313,27.010080562016192,122.9954600771543
145,9.981901393504723,16.03835673975966,26.020258133264385,116.90719091993611
150,9.79785847903177,20.140846916681596,29.938705395713367,146.81116488327885
155,9.645033143232839,21.090760412047906,30.735793555280743,153.73529808234355
160,9.414130219236748,20.57829436304492,29.99242458228167,149.99981774586644
165,9.18119771764413,25.956142300440046,35.137340018084174,189.20016138187276
170,9.26840166849538,23.276757805608895,32.545159474104274,169.66952493527157
175,9.517337131687187,25.409648988448595,34.92698612013578,185.21664866930973
180,9.927061201111488,25.16475902032078,35.09182022143227,183.43159059117622
185,10.54027674950878,23.784541081107538,34.32481783061632,173.3708714820475
190,11.321911757624447,20.47028449041258,31.79219624803703,149.21250948193662
195,11.968036983088838,19.25680081138411,31.224837794472947,140.36715391064425
200,12.63089363691183,21.438756159913904,34.069649796825736,156.27191738787633
205,13.280325763009252,24.23750527656526,37.51783103957451,176.67262942006582
210,14.05758943670367,22.925805051667666,36.98339448837134,167.1113513471275
215,14.72022049698342,24.523598620988572,39.243819117971995,178.75802817881177
220,15.361678238294088,23.782861558862624,39.14453979715671,173.35862906651042
225,15.645119971117431,26.34418476002317,41.98930473114061,192.02869017965568
230,15.849586408264026,23.526717480447285,39.37630388871131,171.49153724630676
235,15.876760552687465,24.36753482074205,40.244295373429516,177.62044402432784
240,15.724019221358995,26.326133774620793,42.050152995979786,191.89711248557074
245,15.538562354088793,27.619965963817293,43.15852831790609,201.32814642596063
250,15.507558701426678,33.43367645198757,48.941235153414254,243.70559026400952
255,15.179760155008703,34.74098257325116,49.92074272825986,253.23483872688251
260,14.908362849660548,36.44193959403867,51.35030244369922,265.63349716817066
265,14.75331216165636,39.63045152909444,54.3837636907508,288.8752780806736
270,14.712261570922214,34.46415640122082,49.176417972143035,251.2169904728306
275,14.710328593493998,32.00564868620099,46.71597727969499,233.29637457173632
280,14.560610902043285,36.40617510474505,50.96678600678834,265.37280175866914
285,14.717369711891305,39.47367607150917,54.19104578340047,287.732506495724
290,15.275895523341298,39.59675927552803,54.87265479886933,288.6296876636425
295,16.393095495357766,38.83957590054308,55.23267139590085,283.1104076764776
300,17.850440518016125,39.35931696878586,57.20975748680199,286.89891726507904
305,19.339150540272723,38.733693724163196,58.072844264435915,282.33860866926534
310,20.66484470226109,38.48612448375211,59.1509691860132,280.5340207726205
315,21.950579023450747,32.214355721637986,54.16493474508873,234.81768711229603
320,23.194943889952672,24.241481724751086,47.43642561470376,176.70161464559652
325,24.210370782641483,24.62437492949625,48.83474571213773,179.49260936627883
330,24.66413814197766,25.376465889311252,50.04060403128891,184.9747695934723
335,24.730105791144208,21.014560025644194,45.7446658167884,153.1798563206955
340,24.411838152800815,23.75118088951124,48.16301904231206,173.12770153943075
345,23.52082760724774,24.88303974388765,48.40386735113539,181.37807539817973
350,22.4251701062654,25.5251013531223,47.9502714593877,186.05820693229606
355,21.123369531553152,23.906543154949144,45.0299126865023,174.26017204884877
360,19.652047477985047,27.1210047640696,46.773052242054646,197.69110597430785
365,18.157175792136943,35.156467429769684,53.31364322190663,256.26340133049
370,16.57406766125739,33.63769849312618,50.21176615438357,245.1927528270006
375,15.287494314813808,36.50176329538952,51.78925761020333,266.06956558770037
380,14.428502039810583,39.42197032179336,53.85047236160394,287.3556116522081
385,13.997392650204084,43.36101541034685,57.358408060550936,316.0681975911501
390,13.794969626537913,42.87414830584792,56.66911793238583,312.51931372094725
395,13.71827110323251,44.16113503797197,57.87940614120448,321.9004495845024
400,14.243428316142845,45.10897076256085,59.3523990787037,328.80943744487024
405,15.111882943047643,40.35914068321422,55.47102362626187,294.18685728072853
410,16.285756091828905,39.369947438847056,55.655703530675964,286.97640515321984
415,17.676776457078688,37.541499357139514,55.2182758142182,273.6484356832891
420,19.276970620570733,34.44020481226076,53.717175432831496,251.04240195177292
425,21.129534712551212,35.46125333581842,56.59078804836963,258.4850543767659
430,22.980668783431558,38.096267701528895,61.076936484960456,277.6922669688899
435,24.66289968451713,36.05893724030264,60.72183692481977,262.8417068359352
440,26.24292838256667,33.53509593762588,59.77802432019256,244.4448597142972
445,27.552419341782713,32.88652307277942,60.438942414562135,239.7172661729883
450,28.502579586389903,29.945989167937846,58.44856875432775,218.28305291798307
455,29.48481624068448,28.079506863424996,57.56432310410948,204.67784344029215
460,30.16986729038917,26.97787025973988,57.14773755012905,196.647766366864
465,30.476770979080193,25.8955933431371,56.372364322217294,188.75880640852498
470,30.144165669065856,26.664162928942993,56.80832859800885,194.3610830482708
475,29.389159712738188,28.592474756192008,57.981634468930196,208.41698182888052
480,28.02093461793752,33.10599957484241,61.12693419277993,241.31707977892398
485,26.176691348363686,41.79487104242372,67.97156239078741,304.65221890955144
490,24.153568169721225,45.713852921287256,69.86742109100848,333.2185595988242
495,22.22934953296712,50.47497513076861,72.70432466373573,367.9234506402568
500,20.56854055958313,53.30492978011453,73.87347033969766,388.5516268215282
505,19.341598792526874,55.55549539518157,74.89709418770845,404.9565059689183
510,18.612774086555486,57.09677772327739,75.70955180983287,416.19125964823576
515,18.511452139394173,62.16847606509665,80.67992820449082,453.1600099981717
520,19.132653982533245,61.51714279608332,80.64979677861656,448.41229524979724
525,20.248897118939205,58.13152173840531,78.38041885734452,423.73374159278154
530,21.6857735605318,63.67741812039311,85.3631916809249,464.15902815246596
535,23.44195646385145,61.90093479197487,85.34289125582632,451.20984146137437
540,25.476295897950607,56.03449135881112,81.51078725676172,408.4480153223108
545,27.84748616978961,57.63739655640697,85.48488272619659,420.1319519626119
550,30.20653691373855,52.218336939443205,82.42487385318175,380.631207121567
555,32.38117295213962,46.4170094233883,78.79818237552792,338.3440255534463
560,34.20439033373868,45.22093249731011,79.42532283104879,329.62555172094255
565,35.84176439139731,44.13889861108611,79.98066300248342,321.73836326571654
570,37.02995835337272,41.52046370465061,78.55042205802333,302.65200208264014
575,37.43581764103992,40.22454580168325,77.66036344272317,293.20576490528714
580,37.64736168313629,37.217058536057706,74.86442021919399,271.28351353896477
585,37.67061840253896,40.86586628787276,78.53648469041173,297.88049422677415
590,37.59656929660149,40.172504390731504,77.76907368733299,292.82642335149836
595,37.395854855788215,42.37008678012456,79.76594163591278,308.8450958456802
600,37.05761952909219,41.585317244402304,78.6429367734945,303.1247341259915
605,36.88524498186504,41.307875146289426,78.19312012815448,301.10239624814005
610,36.45320289700946,45.611292949233345,82.0644958462428,332.4709768864428
615,35.18047155060735,46.72554277135898,81.90601432196632,340.5929945470687
620,33.8199232252771,50.917505271577625,84.73742849685473,371.14915240626954
625,32.72399562874466,46.0959118364157,78.81990746516036,336.0034729947744
630,31.997865056776114,44.62362815566939,76.6214932124455,325.27166598074143
635,31.470231893204115,47.516860721028046,78.98709261423215,346.3610891294143
640,31.005268395821094,45.15098830534758,76.15625670116867,329.1157127682254
645,30.416413844876338,44.332982674610264,74.7493965194866,323.1530856738225
650,29.90969566078404,46.18162657304424,76.09132223382828,336.628266995948
655,29.378196362404182,44.95460760078349,74.33280396318767,327.68424962683315
660,28.887713624443034,41.352443339122345,70.24015696356538,301.42726383358035
665,28.510989849135935,42.55132991155916,71.06231976069509,310.1662178105648
670,28.27219214208254,39.27027365645409,67.54246579853663,286.2498605266722
675,28.08137804294669,41.238002216239174,69.31938025918586,300.59307673953543
680,28.03326039981431,43.03202207663532,71.06528247644962,313.67009115794855
685,28.145834004248346,44.42018782555508,72.56602182980343,323.788743640292
690,28.59766025089284,41.80869735166039,70.40635760255323,304.75300198850874
695,29.189771380027178,38.12608860500076,67.31585998502794,277.90963824402485
700,29.728128450855856,37.13290587062663,66.86103432148249,270.6701058262167
705,30.253034569138155,33.61697838332329,63.87001295246145,245.0417192846051
710,30.57045999453873,31.029771404353472,61.600231398892205,226.18298549113615
715,30.828151204946483,32.682489684113605,63.510640889060085,238.23002089531823
720,30.963585284735107,32.369113885148,63.332699169883114,235.9457541868382
725,31.42114290789676,34.6062601124443,66.02740302034107,252.25281639739373
730,32.05719256363615,36.14237849901943,68.19957106265558,263.44992894507567
735,32.891711967162706,33.70469670790159,66.5964086750643,245.68111788915354
740,33.57896416595264,29.180738070037567,62.759702235990204,212.70496548324383
745,34.06897655918486,30.92953792192412,64.99851448110898,225.4523610850903
750,34.87360509814874,32.529492696767115,67.40309779491585,237.1147914300981
755,35.43909164157292,34.24157073824289,69.68066237981581,249.59451349342208
760,35.25447209145167,35.519168876146026,70.77364096759769,258.9072137812593
765,34.563853004075945,35.79249027043792,70.35634327451388,260.8995149217978
770,33.50137069304628,38.442343460567976,71.94371415361425,280.21489104386416
775,32.51453324698194,40.67862353704296,73.1931567840249,296.5156396861984
780,31.476567498089477,39.0442847625965,70.52085226068597,284.602576631652
785,30.12003299933678,40.32585779706389,70.44589079640068,293.94425083490125
790,28.530194129955454,41.25849249697319,69.78868662692864,300.7424350061362
795,27.206753621364456,37.7180499775771,64.92480359894157,274.9353528796976
800,25.785799176011572,42.22594828819089,68.01174746420247,307.7944379466931
805,24.44666039533849,39.94052468649503,64.38718508183352,291.1354710916891
810,23.030652789593038,38.62391985982526,61.6545726494183,281.5384422728938
815,21.471498704936735,37.11049980266017,58.58199850759691,270.50678295542497
820,19.787764912514888,44.40377857507706,64.19154348759196,323.66913292146245
825,18.28586564460699,42.39016105985362,60.67602670446061,308.9914217873552
830,17.03830325184862,49.92182493707593,66.96012818892456,363.8914144191695
835,16.09237461080965,52.32711997349584,68.41949458430548,381.4241511330513
840,15.62790231610904,51.587695118527506,67.21559743463655,376.03431699396947
845,15.263434759148932,44.84036343469634,60.10379819384528,326.85149819518995
850,15.10154859125375,48.65702546474719,63.75857405600094,354.6720064844146
855,15.590221858571603,52.83017789573394,68.42039975430555,385.0910535167027
860,16.240902837070497,51.14757581994557,67.38847865701607,372.8261883993914
865,17.19956060814859,46.808883214322385,64.00844382247098,341.2004817874991
870,18.502050124617604,46.52854196665755,65.03059209127515,339.1570113562523
875,19.767265879144045,38.12413744985231,57.89140332899636,277.89541583513625
880,21.15023569407187,40.209042301883706,61.35927799595558,293.0927564069477
885,22.539112504995895,41.17906248582665,63.71817499082255,300.1634517830694
890,23.745358325702927,39.857278908681025,63.60263723438395,290.5286738868324
895,24.659020443889965,35.45327465296409,60.112295096854055,258.4268959622303
900,25.79789034950713,35.805424028401035,61.60331437790816,260.99379199369736
905,26.66882764357421,36.04466017782476,62.71348782139897,262.73763811518285
910,27.17693179925765,35.81932855992612,62.996260359183765,261.0951452525151
915,27.26012790991963,33.44831782347483,60.708445733394456,243.8123145151011
920,26.86317301865577,35.200669969452356,62.06384298810812,256.58560358784587
925,26.206354239978786,35.785023600818704,61.99137784079749,260.8450886869363
930,25.395061918526558,38.445851199405325,63.84091311793188,280.2404597414938
935,24.6303647283437,36.23609021577955,60.86645494412325,264.13301473375566
940,23.347886175835836,43.809931182103625,67.15781735793946,319.3404456579135
945,22.14460724628036,44.41207300916225,66.55668025544261,323.7295929177641
950,21.270724887108994,44.866569075997624,66.13729396310661,327.0425170109264
955,20.4022560801955,43.629149743682504,64.031405823878,318.02268907728546
960,19.529398530409363,45.165236645951744,64.6946351763611,329.2195721287778
965,18.583289136189276,50.62039275786069,69.20368189404996,368.98343244322
970,17.815432286801652,46.42985685629418,64.24528914309583,338.4376733825805
975,17.61520748171612,45.67897521671384,63.29418269842996,332.96432816267554
980,17.96353361553946,46.22119600137163,64.18472961691108,336.9166974621812
985,18.769293367243613,45.8265842052028,64.59587757244641,334.0402832919188
990,20.099503007396475,43.42636659694429,63.52586960434077,316.54455709433114
995,21.582338667107052,38.32697376485245,59.9093124319595,279.3739353735146
1000,23.038086587189447,30.330846851340823,53.36893343853027,221.08836716561154
1005,24.585998831957678,30.04602175602878,54.63202058798646,219.0122129599948
1010,26.22237283036429,28.70234756538683,54.92472039575112,209.21786945657655
1015,27.755665186763302,28.605103323398733,56.36076851016203,208.50903429668864
1020,29.344237590838702,31.146928403419473,60.491165994258175,227.0369692177521
1025,30.66715152112513,34.37039081794578,65.03754233907091,250.5335120390033
1030,31.55661219834739,29.26322865003838,60.819840848385766,213.30625788132002
1035,32.26081162698621,31.128429188960478,63.38924081594669,226.9021242812216
1040,32.5858022423379,30.007546406515324,62.59334864885322,218.73175748040504
1045,32.72310028677759,28.26796450611955,60.991064792897134,206.0515536010217
1050,32.81521068611945,29.34044912599515,62.1556598121146,213.8691353052413
1055,32.719068258456474,34.03622977848011,66.75529803693658,248.0977370358216
1060,32.29734261942178,35.01876247726623,67.316105096688,255.2596389479616
1065,31.557164465997808,36.080649192554894,67.6378136585527,262.99997014110954
1070,30.71875729954811,33.80044678066839,64.5192040802165,246.37906171339804
1075,29.924138676028644,35.45915406833337,65.38329274436201,258.46975234373036
1080,29.339593229133143,37.32811126492401,66.66770449405715,272.0930018666291
1085,29.115813145621345,34.72617432879341,63.84198747441476,253.12689810116245
1090,29.211147971289055,32.11325439701173,61.32440236830078,234.08073680921171
1095,29.031598673360115,29.351253550903028,58.38285222426315,213.94789118939954
1100,28.743325715216017,32.69685998073715,61.44018569595317,238.33476922073612
1105,28.373032302746964,32.33389170921034,60.706924011957305,235.6890118214092
1110,27.807041998552503,33.18521426674279,60.992256265295296,241.8944934915585
1115,27.30455267756308,36.73240529137994,64.03695796894303,267.7507669911186
1120,26.527270653117746,40.878935115767064,67.4062057688848,297.97575585379303
1125,25.858366637603602,37.911255580311725,63.76962221791533,276.3436719894542
1130,24.896624420606376,40.49803695345471,65.39466137406109,295.19930344628966
1135,23.69184799134222,39.57500107311824,63.26684906446046,288.47108723066356
1140,22.36296179232904,44.87940451317328,67.24236630550232,327.136077400484
1145,20.711780800693884,47.03409101587459,67.74587181656847,342.8420721249589
1150,19.23454075539214,44.73382033837045,63.96836109376259,326.07488159378374
1155,17.93986384457796,47.30225546698966,65.24211931156762,344.79678314636493
1160,16.5199347797004,44.34645009803018,60.86638487773058,323.2512527533119
1165,15.308641550936786,47.48905525833714,62.79769680927392,346.1584088556077
1170,14.259765730417596,45.6694816830812,59.9292474134988,332.89512765997415
1175,13.470836473295615,45.619108209130594,59.08994468242621,332.52794407427393
1180,13.163245813140522,48.362324128835944,61.525569941976464,352.52386213890776
1185,12.851476668021252,48.42635765287027,61.27783432089153,352.99061690319104
1190,12.673816917085672,46.079124006594085,58.75294092367976,335.8811027259287
1195,12.671266778556463,48.55701938163505,61.228286160191516,353.94303964315696
1200,12.776229071135159,47.203716790506995,59.97994586164215,344.0785125621972
1205,12.815197033264678,47.126858781580644,59.94205581484532,343.5182772420161
1210,13.156117492815307,46.730995808713374,59.88711330152868,340.6327429632829
1215,13.793684825600414,42.863207649704094,56.65689247530451,312.43956481665805
1220,14.63626118939679,47.28105240289531,61.9173135922921,344.64222924147384
1225,15.49161430884399,42.71766850368362,58.20928281252761,311.3786972348838
1230,16.43414197046731,40.15138290875564,56.58552487922295,292.672464117025
1235,17.534340313640133,41.16119135828861,58.69553167192875,300.0331851134258
1240,18.61974487209165,39.38487655247437,58.00462142456602,287.0852268215125
1245,19.95712371152166,40.4980989680005,60.45522267952216,295.19975548426726
1250,21.39476926196971,41.21139159553051,62.606160857500214,300.3991059377778
1255,22.740702373388462,39.19383385352774,61.93453622691621,285.69267360412175
1260,23.66188855387704,36.876017099484656,60.5379056533617,268.79758577317216
1265,24.640411021562116,32.33313128658294,56.973542308145056,235.68346892978235
1270,25.864941163961042,30.290285169061047,56.155226333022085,220.79270393706145
1275,27.19961365863557,29.200495502704946,56.40010916134052,212.84898185539544
1280,27.931856491485483,28.13898087532425,56.070837366809734,205.1113628947288
