#"Step","Potential Energy (kJ/mole)","Kinetic Energy (kJ/mole)","Total Energy (kJ/mole)","Temperature (K)"
5,493.87115395433784,7.021590860830483,500.8927448151683,34.46948033468678
10,493.4927025833366,12.415094050290415,505.907796633627,60.94656448968278
15,493.15934414452073,20.660045510760344,513.819389655281,101.42160751910552
20,492.9111628045028,25.515092361696524,518.4262551661993,125.25537187098263
25,492.6871273085781,24.56495653826267,517.2520838468408,120.59108870064975
30,492.844565607956,27.879719508138756,520.7242851160947,136.86349181682587
35,493.88639207048294,36.03470701474028,529.9210990852232,176.8968955083606
40,495.9159613812982,36.950982155398165,532.8669435366963,181.3949542201343
45,497.86264539370603,37.4959686541126,535.3586140478186,184.07033103607787
50,499.4498545199975,45.38314361640894,544.8329981364064,222.78902422791563
55,500.51556350938347,43.25670052732242,543.7722640367059,212.35016646834674
60,500.419864975869,45.036924139449766,545.4567891153188,221.08940861529106
65,500.1231848194192,52.614968139617964,552.7381529590372,258.29055630624237
70,499.5236727652582,57.813903304588166,557.3375760698464,283.81249242899963
75,498.86904337108956,55.99180307349843,554.860846444588,274.86767503245494
80,497.6548504227337,64.84659884653527,562.501449269269,318.3364864194888
85,497.144129757913,63.31486105195898,560.4589908098719,310.81707851969566
90,496.7923710352056,62.56640738849935,559.358778423705,307.14286716996247
95,496.92318176488027,65.46704084939256,562.3902226142728,321.38227957949834
100,497.8979518951304,59.23044964535956,557.12840154049,290.76641743035145
105,499.4008589157968,53.251900278516324,552.6527591943131,261.41730069671377
110,501.03472955609595,55.678023608098314,556.7127531641943,273.32730970408284
115,502.8063639722365,54.60539079698855,557.411754769225,268.06168025888974
120,504.6317833452415,55.100178882455815,559.7319622276973,270.4906295554077
125,506.68676449318053,45.777878176178106,552.4646426693587,224.72680377318744
130,508.7193027297734,41.20773093031464,549.927033660088,202.29163149667548
135,511.17005367074495,41.330572871700426,552.5006265424454,202.89467117340925
140,513.458056582151,39.244332836352896,552.7023894185039,192.65317301477938
145,514.9466081008065,38.56131676095242,553.507924861759,189.30019935881973
150,515.650295994224,39.95450704662771,555.6048030408517,196.1394678531508
155,516.3679015447171,35.76062745722019,552.1285290019373,175.55141980273666
160,517.0551808737304,36.24983713356039,553.3050180072908,177.9529842989273
165,516.7907602840951,33.721595663718084,550.5123559478131,165.5416702031126
170,515.8238312350068,39.806859963192984,555.6306911981998,195.41465800025583
175,514.3052293760405,42.38036773068004,556.6855971067206,208.04818751525622
180,511.94862948132896,49.59142646042604,561.540055941755,243.4477788619745
185,509.14549178563556,59.100356974693874,568.2458487603294,290.1277834167673
190,507.0781831045662,63.32741561177438,570.4055987163406,310.87870973137467
195,505.96848352216387,65.39600980190573,571.3644933240696,321.0335832024198
200,505.60516817716893,63.11650139604223,568.7216695732112,309.84331710375227
205,506.1911883009723,63.52087744381046,569.7120657447828,311.82842738753726
210,508.14806035960004,46.367836618655986,554.515896978256,227.6229510045384
215,510.0315453739763,51.40367765226519,561.4352230262415,252.34424663640476
220,511.080485956209,57.80569993007305,568.886185886282,283.7722214901011
225,511.5583081320398,68.09054494497133,579.6488530770112,334.2612445637707
230,512.7438701425414,71.86539432572465,584.609264468266,352.79224403030634
235,513.8512442691718,71.83959959237653,585.6908438615484,352.6656158812865
240,514.6498419935617,60.10004185085752,574.7498838444193,295.03530635035656
245,515.200230362597,64.31608970680809,579.5163200694051,315.7321799707597
250,515.3330044877134,60.80687397544994,576.1398784631633,298.50519465650626
255,514.8202064764575,63.58835493787574,578.4085614143332,312.15967912248124
260,513.3258246323851,62.33450513714376,575.6603297695289,306.0044428084317
265,511.21439922670373,74.21791318156461,585.4323124082683,364.3409235312313
270,509.4603589432718,77.42525671760473,586.8856156608765,380.0859971382463
275,508.38325349046767,82.20355367669598,590.5868071671637,403.5429909063521
280,508.4683394063167,80.52874640489775,588.9970858112144,395.32124494253054
285,509.08782776359004,81.98123442816154,591.0690621917515,402.4516101755082
290,510.66681824831187,77.75646265978153,588.4232809080934,381.71191025920024
295,513.5483277459156,81.21914700027214,594.7674747461878,398.71046972320926
300,518.5247902886812,82.1293384148189,600.6541287035001,403.17866299825994
305,523.6780718232816,82.96407383225608,606.6421456555377,407.27643750923653
310,528.9212675638521,68.3589164967064,597.2801840605584,335.57869927001474
315,533.7757066160682,63.158665847767715,596.9343724638359,310.0503053445058
320,537.4013430651231,58.80948132983097,596.2108243949541,288.69985454435573
325,539.68882533261,49.829408865839504,589.5182341984495,244.6160511247692
330,540.263753888776,55.99273838311075,596.2564922718868,274.8722665327186
335,539.832424724775,57.32555441129435,597.1579791360693,281.4151535769512
340,536.3787623458092,60.42615334956519,596.8049156953743,296.63621049222644
345,531.8890031783578,59.30863376360909,591.197636941967,291.15022873179316
350,526.2115813004913,69.9249790733034,596.1365603737947,343.2666099239993
355,520.6281345226089,74.36204730893576,594.9901818315446,365.04848803725974
360,514.9920222667521,93.58097571478939,608.5729979815414,459.39555095641293
365,511.2079012796329,106.9307293463039,618.1386306259368,524.9304246616543
370,509.6681095809372,106.73184334043091,616.3999529213681,523.9540793569846
375,510.2515182137714,97.25637205481982,607.5078902685913,477.43832849441867
380,513.158380818969,89.993314544479,603.151695363448,441.7834714991222
385,516.8968215458002,89.36733697694817,606.2641585227484,438.7105038652023
390,520.6406540178656,81.35820177350955,601.9988557913751,399.3930993247557
395,524.8198393203633,89.1460780811084,613.9659174014716,437.62432847985366
400,528.158480477205,90.54877009604587,618.7072505732508,444.5102416272897
405,529.6588074658451,89.76336094190574,619.4221684077509,440.65461319067157
410,529.6425980312079,103.93330570134765,633.5759037325555,510.2158624730615
415,529.3266846326342,106.47497569055963,635.8016603231938,522.6930981090957
420,527.6966232244364,107.14034984554429,634.8369730699807,525.9594663445899
425,525.4196555814898,110.29173626586058,635.7113918473503,541.4298425591965
430,522.181251050398,110.5944097030513,632.7756607534493,542.9156876187936
435,518.4045448477776,108.50034952588774,626.9048943736653,532.6357998373725
440,514.8583575395876,106.52419842632509,621.3825559659126,522.9347359595652
445,511.800160459729,92.52247332221293,604.3226337819419,454.1992887234953
450,508.90573478959584,96.8569725323638,605.7627073219596,475.4776483212431
455,505.86603595076235,86.98021516420782,592.8462511149702,426.9919560301576
460,503.4093826017904,94.12109548258233,597.5304780843727,462.04703665008554
465,502.6345977094687,111.16690611147459,613.8015038209433,545.7261125044001
470,504.09231999134704,106.04358812845912,610.1359081198061,520.5753864133884
475,507.4408385250365,105.3941962978992,612.8350348229357,517.3874765256363
480,512.283606907746,105.24686990429993,617.530476812046,516.6642409615594
485,516.5105670050675,99.22472717785402,615.7352941829215,487.10112137852053
490,521.604263447637,94.91161584010452,616.5158792877415,465.9277563413718
495,525.9488041015288,95.44932000094444,621.3981241024733,468.56738365166467
500,528.3312572075928,100.714138257387,629.0453954649798,494.41274447559096
505,528.3805541776294,87.87615964115436,616.2567138187837,431.39021009268885
510,527.081853923196,92.85424834594258,619.9361022691386,455.82799550557013
515,524.9599070830379,87.62207060786186,612.5819776908997,430.14286926780636
520,522.3358498731873,104.08476331588236,626.4206131890696,510.9593784894768
525,522.063397414302,108.74799460805593,630.811392022358,533.851506855763
530,523.0485876474349,111.05452628051177,634.1031139279467,545.1744320590188
535,524.8266405957442,104.96044066009307,629.7870812558372,515.2581397807652
540,526.8170921322865,108.38709529260089,635.2041874248873,532.079826889863
545,527.9756064220628,107.62971124158022,635.6053176636431,528.3617756433719
550,529.5231697786134,110.9076110563783,640.4307808349917,544.4532149545896
555,531.5495288436291,107.45969540623729,639.0092242498664,527.5271560238166
560,534.3575117923323,108.03860066969715,642.3961124620295,530.3690424267672
565,537.1426883341542,101.48696319101076,638.629651525165,498.2065960940757
570,540.2635843358911,102.77252250642508,643.0361068423161,504.5174966321493
575,544.0410764756668,99.6476250347804,643.6887015104472,489.1771565181101
580,548.115066932802,82.19102305813617,630.3060899909382,403.4814772239702
585,551.5930229192094,85.97150398472547,637.5645269039348,422.04012234265144
590,554.080178735741,72.20692541363319,626.2871041493742,354.46884401336985
595,555.1353418348662,74.60458355245916,629.7399253873253,366.2391154096427
600,556.0253431327933,77.35811140440136,633.3834545371947,379.7563761023723
605,557.4349990961647,81.1125405087408,638.5475396049055,398.18713100464504
610,559.9917599809261,80.60728948250993,640.599049463436,395.70681840057426
615,562.4886493949406,76.998242943272,639.4868923382126,377.9897566724124
620,562.9352977577621,69.0465144465125,631.9818122042745,338.9541656676979
625,560.6316612768771,69.09445228561758,629.7261135624947,339.1894958706491
630,555.4888236295493,73.55959241863151,629.0484160481808,361.10918089034004
635,547.9900818872327,75.17726464102307,623.1673465282557,369.05044690296836
640,540.2805445963052,80.6961569604893,620.9767015567945,396.143075061681
645,533.5991407102395,91.08625018984948,624.6853909000889,447.14876897683934
650,527.3417888129048,101.70210298547961,629.0438917983845,499.2627323830784
655,522.9726523571014,105.62938375136667,628.6020361084682,518.5420281739652
660,520.0521211422943,94.06229794485203,614.1144190871463,461.7583954275061
665,519.533394287338,94.21039414061495,613.743788427953,462.4854100042125
670,520.7307000753306,89.40696499895802,610.1376650742886,438.9050405951891
675,523.1610755390121,81.76300581963292,604.924081358645,401.38031068238257
680,526.2348210188363,77.70229062545776,603.9371116442941,381.4459759561594
685,529.3047787754317,75.89519778330217,605.1999765587339,372.57483088088674
690,531.5266330670057,72.1178224616163,603.6444555286221,354.03143139375373
695,532.3135028331589,68.47395303569408,600.7874558688529,336.14342168079
700,533.1574442853904,70.57345716656442,603.7309014519549,346.4500342114822
705,533.9849409254581,79.00006867586396,612.9850096013221,387.8168591183796
710,534.3589843044787,79.66860228059029,614.027586585069,391.09873731349654
715,534.54246241602,69.48604059461405,604.028503010634,341.11183025095943
720,534.716184859782,74.47698288707386,609.1931677468558,365.6127148241674
725,535.1510461622136,73.56805664935966,608.7191028115732,361.15073239062184
730,535.9517973751755,68.69007182490488,604.6418692000804,337.2043639234113
735,535.7663868317683,74.65727904803708,610.4236658798054,366.49780128077225
740,534.9334040454399,78.6841356609557,613.6175397063956,386.26592186494213
745,533.5275800969275,88.03218373037241,621.5597638272999,432.1561432525145
750,531.7258894689612,107.91800482220332,639.6438942911645,529.7770289819476
755,529.2841211272446,119.35582474990636,648.6399458771509,585.9260864938258
760,525.2587509030413,125.88473641995982,651.1434873230012,617.9769702434376
765,521.1158439447747,136.50116953366367,657.6170134784384,670.093782471664
770,517.6731338709009,136.5288845197707,654.2020183906716,670.2298372757002
775,515.6585839722378,143.0718649518258,658.7304489240636,702.3497855613638
780,515.2287375555205,143.06245332171423,658.2911908772347,702.303583211287
785,516.2511190824887,149.462303099159,665.7134221816477,733.7208931088463
790,516.3935919137118,144.62301377643777,661.0166056901496,709.9644835644045
795,517.1727769014603,143.35261605343075,660.5253929548911,703.7280123432314
800,519.1170445913197,125.02720484006957,644.1442494313892,613.7672877775607
805,522.8930709036699,120.3931015694289,643.2861724730988,591.0181509049853
810,528.8393917993221,104.54214516647517,633.3815369657973,513.2046979643553
815,535.2872438216995,91.62744485698775,626.9146886786872,449.80553142653207
820,540.6958528161023,74.1402215022844,614.8360743183866,363.95952964711074
825,545.5546213192054,73.38058225455744,618.9352035737628,360.2304074823533
830,549.6177768431112,74.76765015134093,624.3854269944521,367.0396207416686
835,553.6384209120919,73.63894942058722,627.2773703326791,361.49874995987824
840,556.0466729922712,72.43137234497675,628.478045337248,355.5706696878456
845,555.8618529221652,76.10518173248755,631.9670346546527,373.6056567650069
850,554.2341087471631,79.08607196295942,633.3201807101225,388.2390552662345
855,551.5858984699131,74.78223924621872,626.3681377161319,367.11123962817993
860,547.1714126992334,74.38003142362456,621.551444122858,365.1367733133302
865,541.1905625187978,73.14546121105505,614.3360237298529,359.0761818451851
870,534.3308097278693,80.00709153533244,614.3379012632017,392.76040472492656
875,526.3202081292764,100.36306192515553,626.6832700544319,492.6892862209476
880,517.6815601113193,113.02917621542476,630.710736326744,554.8681266146317
885,510.65059716782713,112.90098955549809,623.5515867233253,554.2388493409928
890,505.26472797599246,138.03032166864784,643.2950496446404,677.6004971877855
895,502.22519415198155,144.45884231224076,646.6840364642223,709.1585543713176
900,503.1755961499946,143.20489113323376,646.3804872832284,703.0028203842298
905,506.50553608938776,133.12123368887862,639.6267697782664,653.5014411570717
910,511.51300033124403,123.72988531155534,635.2428856427994,607.3986555313581
915,517.4762128624609,119.4424960460279,636.9187089084888,586.3515619446825
920,523.2300919947702,119.10830732589834,642.3383993206685,584.7110061582666
925,529.4275358877233,112.75570876848585,642.1832446562091,553.5256558026365
930,536.1940746244885,106.81257136288524,643.0066459873738,524.3503788619829
935,543.887720817369,101.62652184994316,645.5142426673121,498.8916993057198
940,550.6109262169987,107.1360475928954,657.746973809894,525.9383462856154
945,555.356409658506,101.15876794227911,656.5151776007851,496.59546267768707
950,558.2919650031727,100.9922579412183,659.284222944391,495.77805344367545
955,558.7202465504279,98.3188020183806,657.0390485688084,482.6538714478298
960,558.2808005165938,96.70012709765038,654.9809276142441,474.70768311896984
965,556.0043249882735,97.06655723439127,653.0708822226647,476.50651427315825
970,552.6482498057713,100.5674062108938,653.2156560166651,493.6924266030016
975,548.3660566097348,111.41741122129213,659.7834678310269,546.9558595984331
980,544.2591200660448,113.85232005012385,658.1114401161686,558.9089972357125
985,542.6973307276573,112.36998013282698,655.0673108604843,551.632086968323
990,544.4199663724957,113.079582204179,657.4995485766747,555.1155731367307
995,548.1329366570525,96.08542450571409,644.2183611627665,471.69006512834784
1000,553.2266962223036,86.97948492642718,640.2061811487308,426.98837124184985
1005,557.8085644964311,77.46757014093963,635.2761346373708,380.29371669104336
1010,561.0731419392004,76.6628522068634,637.7359941460637,376.3433001040636
1015,561.2864577823125,76.9461660496581,638.2326238319706,377.7341075615635
1020,560.294669987177,75.25707092087764,635.5517409080546,369.44222150911594
1025,557.0417234263518,75.19131418469163,632.2330376110435,369.1194170948798
1030,551.3228954211002,85.10477296029077,636.427668381391,417.7852791604782
1035,545.1001982354023,89.98469542376027,635.0848936591626,441.74115963305
1040,539.7144660897229,101.5234471873348,641.2379132770577,498.385698582208
1045,534.6457979329736,112.27540815754679,646.9212060905204,551.1678265312306
1050,531.2689793603298,113.29912038180078,644.5680997421306,556.1933013960718
1055,530.4197527740923,108.42748481741056,638.8472375915029,532.2781018903221
1060,532.2894940769537,107.85253052739348,640.1420246043472,529.4556110921693
1065,536.0983098118169,94.84470901000934,630.9430188218262,465.5993060357456
1070,541.1386729313012,85.64979566321038,626.7884685945116,420.46083370539554
1075,545.9378302126361,81.16324194303282,627.1010721556689,398.4360278895401
1080,549.5925327208811,78.9346054498599,628.527138170741,387.4954955661425
1085,551.671037048532,87.58448174263349,639.2555187911654,429.9583429009939
1090,552.3460838265269,92.27548054486496,644.6215643713919,452.98678391506235
1095,552.7063947071861,86.30042628559737,639.0068209927834,423.65482490881647
1100,551.2724740321311,99.52967171642779,650.8021457485588,488.5981154335537
1105,548.3259492596657,97.63555270183123,645.9615019614969,479.299752794767
1110,544.7510680420431,105.15929099193853,649.9103590339816,516.2343099591401
1115,541.4607198100998,106.9487625925427,648.4094824026425,525.018951127938
1120,539.0677447934586,94.24030255594926,633.3080473494078,462.63223250564283
1125,536.5200528073299,97.81454373357481,634.3345965409047,480.17843228080596
1130,533.5183365659109,91.94361556022676,625.4619521261377,451.3576355085993
1135,528.715385621294,103.66778433892658,632.3831699602206,508.91239954538395
1140,523.7457667009334,117.2948515632663,641.0406182641997,575.8086250616165
1145,520.0647638670451,127.26584773511627,647.3306116021614,624.7569422271895
1150,518.3855173827525,136.89963838745177,655.2851557702043,672.0498939272964
1155,519.2995958110097,131.79535475122205,651.0949505622317,646.9926087751287
1160,521.5973273103198,132.3862744445189,653.9836017548387,649.89347485394
1165,525.8613123229125,136.47577171012227,662.3370840330347,669.9691027806288
1170,532.1497934840664,129.03926884586687,661.1890623299333,633.4627904193904
1175,539.1206440095755,114.59177002706087,653.7124140366363,562.5390088589618
1180,545.7669157228275,95.46148802009297,641.2284037429205,468.62711730819143
1185,549.3589051058078,91.18480735015467,640.5437124559625,447.632592965778
1190,550.7235949853967,93.59850167394683,644.3220966593435,459.4815871149556
1195,549.9649031476025,98.76541345492241,648.7303166025249,484.84631820729584
1200,547.9026612209628,92.81449012034761,640.7171513413105,455.63281959708297
1205,545.9792651761668,105.47485117582654,651.4541163519933,517.783416959039
1210,544.0563420428779,102.91553230484851,646.9718743477264,505.21954172878435
1215,542.0132754873214,102.54007289300088,644.5533483803223,503.3763852319639
1220,541.2005965600558,110.10956067997155,651.3101572400274,540.5355298742618
1225,541.6061041658356,110.59984914573631,652.205953311572,542.9423902231434
1230,544.2150910733105,99.3327701410493,643.5478612143598,487.6315118368903
1235,548.0592206793436,96.26617558716397,644.3253962665076,472.57738482141997
1240,551.6821468376295,87.38113836282702,639.0632852004564,428.9601160361209
1245,554.0679284497342,90.02150391478516,644.0894323645193,441.9218550883506
1250,554.7150797221157,93.40968558431896,648.1247653064346,458.5546757330055
1255,554.0972628964091,100.3366304981037,654.4338933945128,492.5595324980323
1260,552.9807668170554,90.99581019214149,643.9765770091968,446.7047927064681
1265,551.7505731644046,85.56392087524014,637.3144940396447,420.03926836872836
1270,550.5989533498863,97.3611877512876,647.9601411011739,477.952876074842
1275,549.9731359589364,100.4071482101408,650.3802841690772,492.9057088755067
1280,547.9750436585266,107.65488591977577,655.6299295783024,528.4853598983067
1285,545.2654798086182,107.60647252411921,652.8719523327375,528.2476951550036
1290,541.6133361206713,112.3241294853795,653.9374656060509,551.4070029351105
1295,539.5999143218019,116.86430931493679,656.4642236367387,573.6950630702972
