#"Step","Potential Energy (kJ/mole)","Kinetic Energy (kJ/mole)","Total Energy (kJ/mole)","Temperature (K)"
5,43.73451756183793,5.109714436384962,48.844231998222895,25.08394532973469
10,43.748976917137384,8.439940218201398,52.188917135338784,41.43225647055379
15,43.76950608645313,10.777629971979552,54.54713605843268,52.908138872924965
20,43.80574533862561,12.150307286842606,55.95605262546822,59.646707759712314
25,43.86240141696742,17.116141240523525,60.97854265749095,84.02433374281881
30,43.96273293661044,20.700990034827065,64.66372297143751,101.62260704971102
35,44.12086033603432,24.773198877114087,68.89405921314841,121.61336489790445
40,44.33598695024739,28.593459365980276,72.92944631622767,140.36729066833578
45,44.605471558916086,33.92641375452153,78.53188531343761,166.54713652734992
50,44.930932232234255,35.14490647314212,80.07583870537638,172.52880245390656
55,45.36991068770385,41.18367258626124,86.55358327396509,202.1735274040745
60,45.937779844634676,45.75132764158589,91.68910748622056,224.59646534303093
65,46.611515715751736,46.52000509859438,93.13152081434612,228.36995670890886
70,47.33106649622903,51.4282532549937,98.75931975122273,252.46488998799748
75,48.04843980440228,45.620534103988426,93.66897390839071,223.95439072468915
80,48.763596402871364,53.24291647590163,102.006512878773,261.37319858172367
85,49.54909134157487,57.24962695793565,106.79871829951051,281.04242040119607
90,50.342739684008976,58.86230435367107,109.20504403768004,288.95916646063836
95,51.12276213785065,57.7487055987589,108.87146773660956,283.49243233386005
100,52.08820424599842,56.10710640372101,108.19531064971943,275.4337071400507
105,53.0978923470396,57.96491831657142,111.06281066361102,284.5538356785526
110,54.18699179068848,58.686227388096846,112.87321917878532,288.09479232911366
115,55.5517518429502,68.91767942255424,124.46943126550445,338.32170552970814
120,57.067698431544144,72.14443958170666,129.2121380132508,354.1620966967748
125,58.656424400312396,69.70700499879835,128.36342939911074,342.19655995618695
130,60.38489413322407,63.89841664417497,124.28331077739904,313.6817937115613
135,62.194980121351456,66.25569627876634,128.4506764001178,325.25384420814834
140,63.93334974153801,59.153447245551014,123.08679698708903,290.3884072673368
145,65.74840654229962,59.42478617995857,125.1731927222582,291.72042906253574
150,67.53736516158098,58.96012169881234,126.49748686039331,289.43935864522535
155,69.12688774744242,60.47855390329775,129.60544165074018,296.8934484732212
160,70.53797826127052,57.194213958246976,127.7321922195175,280.7703941124372
165,71.79803331246072,59.81826187069593,131.61629518315664,293.6520287317373
170,73.02168825015646,57.42977637976705,130.45146462992352,281.9267865051459
175,74.20488526211219,62.754510899546425,136.95939616165862,308.0662804538512
180,75.61233451915871,60.64435243618604,136.25668695534475,297.7073650602433
185,76.95137770535884,58.710981496000024,135.66235920135887,288.21631197508606
190,77.8796027241635,57.451021273368546,135.33062399753206,282.03107917282244
195,78.98736487822356,57.22886893527955,136.2162338135031,280.940517817022
200,80.23888773730336,57.62472351707862,137.86361125438196,282.8837956287265
205,81.67759937002228,71.3656201144291,153.04321948445138,350.3388174935744
210,82.9889417388429,72.61968666502999,155.6086284038729,356.49511784788086
215,84.2623022076021,77.56505982227199,161.8273620298741,380.7723003510892
220,85.72602370315391,84.15275803340168,169.8787817365556,413.111771339937
225,87.07740232484731,82.29730589701832,169.37470822186563,404.00322710905675
230,88.71940619683582,75.73437973376231,164.45378593059814,371.78536383475057
235,90.55296663711256,67.49823503475005,158.0512016718626,331.3535538129032
240,92.20650933425438,63.11590790073004,155.3224172349844,309.84040359378025
245,93.69208871356633,61.096813793133855,154.7889025067002,299.9285294878832
250,94.95323665875344,64.26259579610428,159.21583245485772,315.4695746239691
255,96.26058891729035,67.32857278077901,163.58916169806935,330.5206699490174
260,97.56249927079593,63.91852881134231,161.48102808213824,313.7805257459966
265,99.21965630060939,61.20104990384622,160.4207062044556,300.440231841321
270,101.05322489859518,52.85220588433671,153.9054307829319,259.455172977636
275,102.64182968301536,53.71136587756914,156.3531955605845,263.6728494384334
280,104.11164742843137,48.83277934238412,152.94442677081548,239.72352713118943
285,105.01694070694576,57.81962903047826,162.836569737424,283.8406004176139
290,105.75164297352907,60.80487514079755,166.55651811432662,298.4953822374821
295,106.5741740832492,68.81945412709592,175.39362821034513,337.8395106884997
300,106.94189723871925,72.27005061355652,179.21194785227578,354.77873003215205
305,106.66172308837044,70.96799858784154,177.62972167621197,348.3868656263964
310,106.0673301068077,74.23901514099315,180.30634524780083,364.4445145250619
315,105.49810874569451,60.2696263082533,165.7677350539478,295.8678083054165
320,105.1403467530555,61.06964229285745,166.20998904591295,299.79514269377853
325,104.01734774445258,64.83115122090709,168.84849896535968,318.2606529455137
330,102.08677373780714,71.52769589696346,173.61446963477061,351.1344588388944
335,99.90437060388706,66.24199088449491,166.14636148838196,325.18656346968294
340,97.81721063627984,66.00766674543661,163.82487738171645,324.03624989213324
345,95.82576850343732,70.753539443375,166.57930794681232,347.3340706958316
350,93.83379369620566,74.1534018502397,167.98719554644538,364.0242328965102
355,91.63431521713038,80.71668184581645,172.35099706294682,396.24383315841123
360,89.55271668489497,73.93539268703422,163.4881093719292,362.95401067581474
365,87.71943807267853,82.11189912615609,169.8313371988346,403.0930523112336
370,86.0018568427039,67.17482166738897,153.17667851009287,329.76589498640914
375,84.56355812099179,73.01369839201766,157.57725651300944,358.42934895650336
380,83.21992664207457,73.63372306458074,156.8536497066553,361.4730934129279
385,81.9947964351306,74.85696252638752,156.8517589615181,367.4780614335759
390,81.12260113541303,71.2733862178126,152.39598735322562,349.8860348480704
395,80.5471077183064,73.4943050174793,154.0414127357857,360.7886804745906
400,80.25597390301846,71.75627230134518,152.01224620436363,352.25655638515855
405,80.1833019276268,74.84975639016125,155.03305831778806,367.4426860071428
410,80.4545533318315,79.7196927811621,160.17424611299361,391.3495441519543
415,80.85798702924804,78.03026937595507,158.8882564052031,383.05604656758277
420,81.23836691221645,79.55891757080113,160.79728448301756,390.5602874063417
425,81.93787698265129,78.80363867127092,160.7415156539222,386.8525704956641
430,82.97066026121348,89.77670502028215,172.74736528149563,440.7201202041528
435,84.32506490774684,96.96947744472045,181.2945423524673,476.02994279992976
440,85.94894189781708,93.82603315065185,179.77497504846895,460.5985550382159
445,87.62756698803503,91.36954986009795,178.99711684813298,448.5395068603192
450,89.63439785092821,100.00114296320234,189.63554081413054,490.9126007391164
455,91.97804223757385,97.78980521010891,189.76784744768275,480.0569891399255
460,94.35829689651871,94.0455649589271,188.40386185544583,461.67625202998954
465,96.48675222132994,89.7285854192589,186.21533764058884,440.48389771924036
470,98.8276128931779,95.0436761658302,193.87128905900812,466.57604971118167
475,101.01368175249219,94.38298461405545,195.39666636654763,463.332668702152
480,102.53961502902729,93.1811081071371,195.7207231361644,457.43257292029045
485,103.70194522924189,84.72708026621802,188.4290254954599,415.9311593251115
490,104.85552171614137,78.59290534121001,183.44842705735138,385.81806584844537
495,105.69340824815546,85.398908189644,191.09231643779947,419.22920956099296
500,106.0706385360411,72.90671696409207,178.97735550013317,357.90416964897224
505,106.35108431608595,79.27802675898972,185.62911107507568,389.18137477730505
510,106.88329892704951,81.73487479222658,188.6181737192761,401.2422135025274
515,107.32395432370758,87.34535246066736,194.66930678437495,428.7844405410372
520,107.52592023296152,92.58912169643483,200.11504192939634,454.52647025117386
525,107.49396676471558,88.72389834433267,196.21786510904826,435.55181864227916
530,107.71712013624133,82.97160313337615,190.68872326961747,407.31339937472205
535,107.65558153033379,84.37225407384739,192.02783560418118,414.1892927449352
540,107.33439580115555,85.56715024823725,192.9015460493928,420.0551215864995
545,107.00554066792985,99.67629844866315,206.68183911659298,489.31791631108996
550,106.39578676848475,109.40873547787137,215.80452224635613,537.0951299705016
555,105.66102388519226,109.16348400787633,214.82450789306858,535.8911733615791
560,105.30059799962403,114.33363528991475,219.63423328953877,561.2718073910733
565,105.08956464655186,115.90286821673038,220.99243286328226,568.9752815158837
570,105.11176926432285,114.32763187049018,219.439401134813,561.2423361854877
575,105.12709031887971,120.0373852584721,225.16447557735182,589.2719146704517
580,105.70148160282076,122.39283604127989,228.09431764410067,600.8349872057993
585,106.455934526498,118.92090424031396,225.37683876681194,583.791031311933
590,107.15448286890043,120.50940434479622,227.66388721369665,591.5890893586566
595,107.87156757878975,110.75586022764212,218.62742780643185,543.7082595291641
600,108.68791519482049,103.31406899347196,212.00198418829245,507.1759861903651
605,109.43606884492422,107.40130297321414,216.83737181813837,527.2405034885608
610,110.15945707017303,92.95765731936012,203.11711438953316,456.33563738421196
615,110.89612145895944,88.0903017123063,198.98642317126576,432.4414484881894
620,111.43301670801091,94.0373675230499,205.4703842310608,461.63601024427965
625,111.69083475588263,94.62445033593532,206.31528509181794,464.51804080895903
630,111.91232124630275,97.79785534632673,209.71017659262947,480.0965078213115
635,111.9194581241138,110.98099474016783,222.90045286428165,544.813460587724
640,111.49893235163127,107.6797738641715,219.17870621580278,528.607536556976
645,110.71674528687592,113.01981127801969,223.7365565648956,554.8221534823149
650,109.79686863482455,111.87961253590755,221.6764811707321,549.224838159072
655,108.6472528251257,114.9548285383577,223.60208136348342,564.3212884681736
660,107.65045434370548,116.06847711660188,223.71893146030737,569.7882671811714
665,106.73790204055055,107.95474493377107,214.69264697432163,529.9573887577135
670,105.86188875671725,113.33333545014537,219.19522420686263,556.3612655581583
675,105.1264284605258,112.53147400793895,217.65790246846475,552.424871689432
680,104.28880592579381,110.25474667889219,214.543552604686,541.248258091251
685,103.66019448879982,108.16763927188984,211.82783376068966,531.0025019445396
690,103.27440401244502,106.97160498140488,210.2460089938499,525.1310860115117
695,103.0154081920825,101.76939532384023,204.78480351592273,499.5930751757261
700,102.61755615344404,95.65434117359041,198.27189732703445,469.57384691886205
705,102.22297186310442,88.77176509989285,190.99473696299725,435.7867998911399
710,102.16675962630126,90.96496390312919,193.13172352943045,446.55336611759645
715,102.25097664380259,85.4527731274213,187.7037497712239,419.4936363056216
720,102.45146538764104,92.99120347651322,195.44266886415426,456.5003178145035
725,102.97375001071012,87.43337196332813,190.40712197403826,429.21653443203263
730,103.62443529425487,82.65001078525734,186.2744460795122,405.73468005897485
735,103.93554882102026,92.47306053235704,196.4086093533773,453.9567178842114
740,103.78831968818105,92.73932466574051,196.52764435392157,455.263827126462
745,103.49616620808528,91.5111879120688,195.0073541201541,449.2348179577356
750,103.09474956539215,92.78974906373355,195.8844986291257,455.5113640208011
755,102.80496794306477,95.87571663542411,198.68068457848887,470.6605945348228
760,102.78620305660301,93.52727776127797,196.313480817881,459.1319439492175
765,102.85091696642367,94.85960828753342,197.7105252539571,465.6724476305489
770,102.71180783370784,83.87116205864284,186.58296989235066,411.7293970167015
775,102.21245306293771,81.905209534302,184.1176625972397,402.0783986575235
780,101.64203859944507,77.72905747223355,179.3710960716786,381.57737627794495
785,101.27630677590918,68.57339197095841,169.8496987468676,336.6315743646379
790,100.97676815154055,80.46627564610091,181.44304379764145,395.01457162098274
795,100.87774109375421,91.20811511884355,192.08585621259778,447.74701243145046
800,100.76234775185489,92.71635052019938,193.47869827205426,455.1510454401417
805,100.94316274136186,86.24201751763212,187.18518025899397,423.36809218418813
810,101.18349153536127,88.5629304177543,189.74642195311557,434.76161583928473
815,101.3175645532843,91.13079316690785,192.44835772019215,447.3674335647074
820,101.41239652309287,90.76816575329049,192.18056227638334,445.58727024413713
825,101.20604499251425,101.7634472000279,202.96949219254213,499.5638754201663
830,101.1142025780399,113.02139065643517,214.13559323447507,554.8299067613528
835,101.19545588934629,110.7408181845432,211.93627407388948,543.6344170881748
840,101.33995495618903,101.60439464335707,202.94434959954611,498.7830753019295
845,101.38622988940294,102.07253238721944,203.4587622766224,501.0811962086894
850,101.56027332238541,107.84903431065607,209.40930763304146,529.438447919825
855,102.23674425549684,104.339804577723,206.57654883321985,512.2113938708615
860,102.807129051494,94.32828022924274,197.13540928073672,463.06412105335045
865,103.15567413360226,96.41297058931895,199.5686447229212,473.2980117477534
870,103.60266211253462,97.91558760304738,201.518249715582,480.67446369886466
875,104.1264945192734,102.77406002570483,206.9005545449782,504.5250444217638
880,104.56707241243365,89.91271883586484,194.47979124829848,441.3878215320138
885,104.92697152901285,102.68544949608425,207.6124210250971,504.0900491381108
890,104.86899392103562,119.30978615782524,224.17878007886088,585.7000798272697
895,104.47015317804674,114.67890175191933,219.14905492996607,562.9667445866713
900,103.96199420689335,117.62161100712302,221.58360521401636,577.4127100115135
905,103.63754897072967,108.8681060814159,212.50565505214558,534.4411424741023
910,103.59691339076407,109.70921407207435,213.30612746283842,538.5702003924556
915,103.80686834570075,109.35128593024959,213.15815427595032,536.8131061255874
920,104.19134575413207,101.1669027353652,205.35824848949727,496.63539694555675
925,104.31982124159022,97.28910959170167,201.60893083329188,477.5990393512773
930,104.53941738153436,90.41840448465405,194.9578218661884,443.8702677286028
935,104.86991177309945,91.90573000153012,196.77564177462955,451.17165265281267
940,105.22610349375432,96.49883560532098,201.7249390990753,473.71952911314565
945,105.38961294284171,91.98197387388888,197.3715868167306,451.5459391515563
950,105.57261126993687,96.84265658041294,202.4152678503498,475.4073703124523
955,105.77375493839912,87.3141949996878,193.08794993808692,428.6314863872279
960,105.66889740747226,82.69649647400944,188.36539388148168,405.96288155434013
965,105.58048645005391,88.13952566822685,193.72001211828075,432.6830923284855
970,105.3282008036804,95.26381649458733,200.59201729826773,467.6567339725355
975,104.80972603394812,94.81683079013439,199.6265568240825,465.4624499057329
980,104.33655380904726,84.40224800952561,188.73880181857288,414.3365350717116
985,104.0479445753719,84.96267456368442,189.0106191390563,417.0877081990687
990,104.13884627314123,86.77541089171928,190.9142571648605,425.986557540994
995,104.31298188636265,76.52663224574769,180.83961413211034,375.6745867933717
1000,104.29485818491347,85.42793698369375,189.7227951686072,419.37171394005316
1005,104.470274052145,83.10593121344536,187.57620526559037,407.9728253091169
1010,104.8147494359316,89.39112361607012,194.20587305200172,438.82727413930303
1015,105.29271312750849,82.66103753943658,187.95375066694507,405.7888111659946
1020,106.02033617234682,88.47951597106086,194.49985214340768,434.35212848991955
1025,107.09138415269442,85.09425616619967,192.1856403188941,417.7336514831765
1030,108.33232473776363,91.63358188676008,199.9659066245237,449.83565853465376
1035,109.69823793265684,88.18828253183023,197.88652046448706,432.9224431799475
1040,111.10389811767439,86.70982689911105,197.81372501678544,425.6646011370556
1045,112.47621887339443,90.90618898509008,203.3824078584845,446.26483593666217
1050,113.84933547121422,93.78796666148739,207.63730213270162,460.411683982116
1055,115.46989051836758,81.50295817538387,196.97284869375144,400.1037186198162
1060,117.12065632803883,84.99353514389549,202.1141914719343,417.239204944434
1065,118.70936837160963,92.63228160603475,211.34164997764438,454.7383452642141
1070,120.35228898623656,96.56944346729082,216.9217324535274,474.0661480429413
1075,121.71685428258522,96.84221322175915,218.55906750434437,475.40519383383077
1080,122.7921684523264,100.8529535064954,223.6451219588218,495.09419823644566
1085,123.16902284325215,98.5708738093519,221.73989665260405,483.89130948915516
1090,123.30161178159334,92.91686043091941,216.21847221251275,456.13536260721406
1095,123.66869335437481,94.36188477699795,218.03057813137275,463.2290881271892
1100,123.48871781306327,101.53604640664223,225.0247642197055,498.44754903045515
1105,122.97078067453982,96.36527607834766,219.3360567528875,473.0638760596192
1110,122.16891676443402,95.50934531806283,217.67826208249684,468.8620521290802
1115,121.4802002739394,100.38803108731905,221.86823136125844,492.811861583316
1120,120.91153627127377,89.87197196845833,210.7835082397321,441.1877923117691
1125,120.226420757746,89.26298393050747,209.48940468825347,438.1982274661006
1130,119.82563224541725,99.24157029006292,219.0672025354802,487.1838053936628
1135,119.23348361364205,103.85801587940385,223.0914994930459,509.8462594744917
1140,118.36334005591736,108.08528905510438,226.44862911102175,530.5982389741808
1145,117.30332611264916,106.80793158757126,224.11125770022042,524.3276018806531
1150,115.96266598547479,112.10645061558537,228.06911660106016,550.3384021478585
1155,114.65447751837289,123.35125406953925,238.00573158791212,605.5399282985345
1160,113.47791968003374,122.67478577030934,236.1527054503431,602.219098133476
1165,112.39773421205231,121.59861345664287,233.9963476686952,596.936093022826
1170,110.9662230324292,119.75070849346584,230.71693152589503,587.8645983927519
1175,109.78997413975476,125.05514915398172,234.8451232937365,613.9044683678218
1180,109.01282501408377,123.6185844713797,232.63140948546348,606.8522719271709
1185,108.64036615645357,145.28294113050174,253.92330728695532,713.2041130734556
1190,108.62835761531377,139.9778083416531,248.60616595696686,687.1608453920213
1195,108.73050907558627,144.9506385505211,253.68114762610736,711.5728164808692
1200,109.16996651213613,161.5476133640927,270.71757987622885,793.0485259448118
1205,110.21970180630882,163.98705532253572,274.2067571288445,805.023917032212
1210,111.76473943194665,147.76456585864784,259.5293052905945,725.3865823258419
1215,113.73576966409044,167.4857430237265,281.2215126878169,822.1992195104801
1220,116.48500517380191,165.052652901221,281.53765807502293,810.255010029681
1225,119.64835867495414,164.85971295755883,284.50807163251295,809.3078543600251
1230,122.87095507699131,154.71798098859693,277.58893606558826,759.5213832322487
1235,126.52507009352665,152.326288178351,278.85135827187764,747.780396050943
1240,129.59080777571845,150.88245263549138,280.4732604112098,740.692506449065
1245,131.8613979087143,136.08979462810498,267.9511925368193,668.0743143057757
1250,133.89238711575084,121.8816911663955,255.77407828214632,598.3257412867171
1255,136.02810219873442,119.1152335522372,255.14333575097163,584.7450074874971
1260,138.30851339103123,121.98052634418761,260.2890397352188,598.810930082932
1265,140.03987338745193,122.88021501061401,262.92008839806596,603.2275646333331
1270,141.53972257382864,121.71536706646411,263.25508964029274,597.509244654344
1275,142.8637090878726,122.70042281879827,265.56413190667087,602.3449521965001
