#"Step","Potential Energy (kJ/mole)","Kinetic Energy (kJ/mole)","Total Energy (kJ/mole)","Temperature (K)"
20,-73.70103954842125,0.029890542998964615,-73.67114900542228,0.07988892754953084
40,-73.73870343724047,0.0861332020304655,-73.65257023521,0.23020957286922875
60,-73.79593425554413,0.15212028976480374,-73.64381396577932,0.40657430707280906
80,-73.86575528037793,0.23798671661633666,-73.62776856376159,0.6360708656972817
100,-73.94230116320614,0.3245996176320912,-73.61770154557405,0.8675625376398752
120,-74.01712859856707,0.41865819245357905,-73.59847040611349,1.1189543798551957
140,-74.08788340226602,0.4757757364657878,-73.61210766580022,1.2716133441154482
160,-74.15371290740586,0.5366471533940232,-73.61706575401183,1.4343053439558506
180,-74.2182155988703,0.5924827041848191,-73.62573289468548,1.5835379046346094
200,-74.28011199303,0.6498180401464462,-73.63029395288356,1.7367789648865124
220,-74.32809914093377,0.6758099922948712,-73.6522891486389,1.806248066940909
240,-74.35773351314856,0.6584710221694727,-73.69926249097908,1.7599059269476869
260,-74.37609431501187,0.6418661288591044,-73.73422818615276,1.7155257656811067
280,-74.40331039697048,0.6503071047275951,-73.7530032922429,1.7380860955362234
300,-74.45188887860422,0.7050071459295267,-73.7468817326747,1.884283761757571
320,-74.51992293564399,0.7613478807389784,-73.75857505490501,2.034866535761895
340,-74.61360287038406,0.850448457287768,-73.76315441309629,2.2730070574905983
360,-74.72914061047777,0.9060475647260675,-73.8230930457517,2.4216076722773807
380,-74.8700263632636,1.0465814891427503,-73.82344487412085,2.7972149172298897
400,-75.04125543548435,1.1610580839350477,-73.8801973515493,3.1031783247128395
420,-75.2331269782153,1.3514387641112573,-73.88168821410405,3.6120117830395904
440,-75.44400216696522,1.559195523327616,-73.8848066436376,4.167286562943586
460,-75.66900193985202,1.7063644187195028,-73.96263752113252,4.560627199877288
480,-75.90804403596121,1.9122810158955212,-73.9957630200657,5.110983749559597
500,-76.16608593257115,2.1403484348777098,-74.02573749769344,5.720543151411468
520,-76.43939750127902,2.303465001452711,-74.13593249982631,6.156507381626018
540,-76.71616503754922,2.438748071211838,-74.27741696633738,6.518080584195119
560,-77.0022787555863,2.7023651076006137,-74.29991364798569,7.222654011369541
580,-77.31301525724848,2.8981955923899014,-74.41481966485858,7.746053248775928
600,-77.65285143980145,2.9884449186659694,-74.66440652113548,7.987264052089622
620,-78.04353742561943,3.28860342098179,-74.75493400463765,8.789502433831796
640,-78.49941355657211,3.6063188054013264,-74.89309475117078,9.638665372361983
660,-79.02395362779498,3.903676611398579,-75.1202770163964,10.433418288708294
680,-79.62870143325563,4.389016529993621,-75.239684903262,11.73059397383645
700,-80.33771577537846,4.93042325439454,-75.40729252098392,13.177620298583781
720,-81.17316472742823,5.536661027436167,-75.63650369999206,14.797921593544835
740,-82.17473345414328,6.299818040161968,-75.87491541398131,16.837623425013064
760,-83.3972584700241,7.273778213386824,-76.12348025663728,19.440742201329176
780,-84.88305836485961,8.465219719432689,-76.41783864542691,22.62512677939787
800,-86.69140539877117,9.917806456223694,-76.77359894254747,26.50747835055955
820,-88.88898320637236,11.84142733415384,-77.04755587221852,31.648770328930418
840,-91.44903666064783,13.895651795486485,-77.55338486516135,37.13912857259171
860,-94.00390560468077,15.841153024651689,-78.16275258002908,42.3389005121542
880,-95.56197619796149,16.794402859088716,-78.76757333887277,44.88666643807196
900,-96.07579683791846,16.890977760915494,-79.18481907700297,45.14478370731695
920,-99.53879007088108,19.60562195882544,-79.93316811205564,52.40025623777898
940,-105.0020337880851,24.328286656494168,-80.67374713159093,65.02259695222679
960,-108.01983596588252,26.261576334608357,-81.75825963127417,70.18973088594188
980,-108.35924362542573,25.483260839432475,-82.87598278599326,68.10951473841531
1000,-109.51093525592296,25.452850578429768,-84.05808467749318,68.02823675232816
1020,-112.93041592778172,27.599325864555823,-85.3310900632259,73.76515523608145
1040,-113.23582168140274,26.696348316157657,-86.53947336524509,71.3517528450532
1060,-113.11987379845232,25.394776299794252,-87.72509749865807,67.8730207082916
1080,-114.3742418775073,25.49426978045261,-88.87997209705469,68.13893850939147
1100,-115.76687269090326,25.737831082678294,-90.02904160822496,68.78990865831287
1120,-116.99350263790984,26.09162917912664,-90.9018734587832,69.73551043260325
1140,-119.39103704843728,27.27762143756299,-92.1134156108743,72.90533072030453
1160,-121.00980465587054,27.739188177216846,-93.2706164786537,74.13896745366056
1180,-122.53719860003912,28.128206072161365,-94.40899252787776,75.17870174104938
1200,-125.27259951437009,29.729795034903574,-95.54280447946651,79.45929392075895
1220,-126.53635844985547,29.7120128674028,-96.82434558245266,79.41176724012314
1240,-127.6414192388329,29.75202413645864,-97.88939510237425,79.51870599245284
1260,-128.94453746824001,29.914573870055577,-99.02996359818444,79.95315523919189
1280,-129.49601809782325,29.470249399324672,-100.02576869849858,78.76560219099419
1300,-132.03133698417514,30.646899617909646,-101.3844373662655,81.91045386086618
1320,-136.40694923461706,33.96839062241259,-102.43855861220447,90.78785545990524
1340,-137.57113635286805,33.72010400559629,-103.85103234727177,90.12425588785857
1360,-137.06635623324837,31.857201387146695,-105.20915484610168,85.14524656299264
1380,-139.07569732256525,32.82274471908868,-106.25295260347656,87.72586951434276
1400,-140.02821720899374,32.445101933544784,-107.58311527544896,86.7165376619584
1420,-140.6050773312163,32.05448683308855,-108.55059049812775,85.67253449810883
1440,-143.28440366925497,33.591376843860154,-109.69302682539481,89.78020476446643
1460,-145.39295138127636,34.213653614643505,-111.17929776663286,91.44337374264755
1480,-149.82698716720915,37.45413811318701,-112.37284905402214,100.10426797058068
1500,-152.30498925820575,38.36982652679786,-113.9351627314079,102.55164289232218
1520,-153.16644110596098,37.69495100961075,-115.47149009635024,100.74789241179793
1540,-154.41679818337434,37.73966221210051,-116.67713597127383,100.86739275063357
1560,-155.41079961435753,37.168053632347515,-118.24274598201,99.33964544888133
1580,-156.26946164600668,36.8790451983093,-119.39041644769738,98.5672080311709
1600,-159.88878777460195,38.89761395901373,-120.99117381558821,103.96226871920354
1620,-163.07823899376672,40.57491443307511,-122.50332456069161,108.4452162540049
1640,-163.13758147953195,39.07814317127832,-124.05943830825362,104.44477200325827
1660,-161.29328040522523,35.99142459910595,-125.30185580611928,96.1948504014121
1680,-159.32759372715373,32.59988995406021,-126.72770377309351,87.13024205524829
1700,-158.1630529591348,30.38672704271764,-127.77632591641716,81.21508649967075
1720,-158.30018461091095,29.14108284708211,-129.15910176382883,77.8858335349097
1740,-158.28348107208149,28.291888356374642,-129.99159271570684,75.61617797375311
1760,-156.73705034516752,25.673525347719725,-131.0635249974478,68.61803770229503
1780,-158.77644318380044,26.81924826876182,-131.95719491503863,71.68022949433237
1800,-164.0225084272388,31.07551805954542,-132.94699036769336,83.05602915641767
1820,-166.07163399850833,32.167211936204,-133.90442206230432,85.97381666605456
1840,-165.84081762642018,30.46071365831728,-135.3801039681029,81.41283169866158
1860,-165.26195565631497,28.813902817843573,-136.4480528384714,77.01137429031195
1880,-164.19754981892765,26.69344185908406,-137.5041079598436,71.3439847112128
1900,-164.746263810026,26.224026916432823,-138.52223689359317,70.08937196144004
1920,-168.6401536182966,29.094662893079626,-139.54549072521698,77.76176618885026
1940,-169.85227188208955,28.94432148233241,-140.90795039975714,77.3599463198939
1960,-166.4469046490267,24.50922931192301,-141.93767533710368,65.50620525237292
1980,-167.03944777155994,24.081921794941625,-142.9575259766183,64.36413368590195
2000,-172.44135938037653,28.244695883666893,-144.19666349670962,75.49004590471834
2020,-174.21567712069373,28.93087107103765,-145.28480604965608,77.32399719265737
2040,-174.62666273667128,28.1664465460987,-146.46021619057257,75.28090766122773
2060,-178.43403177015716,30.77520052082765,-147.65883124932952,82.25336571556588
2080,-181.20372411847347,32.304840427179215,-148.89888369129426,86.34165851304448
2100,-180.48927074245876,30.42840702613902,-150.06086371631974,81.32648525130705
2120,-178.9470704108826,27.60087153114819,-151.3461988797344,73.7692863636564
2140,-180.67812318529468,28.139150572976106,-152.53897261231856,75.20795328166827
2160,-184.84041080105817,31.1940056982841,-153.64640510277405,83.37271294456556
2180,-188.3724548870814,33.587779077038455,-154.78467581004296,89.77058895611631
2200,-188.47962628409732,32.427057164730414,-156.05256911936692,86.6683091226338
2220,-185.57372000731993,28.32239660136022,-157.2513234059597,75.69771784318274
2240,-183.19289274705807,24.745631444550476,-158.4472613025076,66.13804097535342
2260,-184.63897126103984,25.428768948594286,-159.21020231244555,67.96387339896692
2280,-187.028337798547,26.74829072232909,-160.2800470762179,71.49058013646513
2300,-188.65512921684422,27.29327841522761,-161.3618508016166,72.94717737241577
2320,-192.26770227577072,30.047732118099773,-162.21997015767096,80.30904939711982
2340,-196.06166393798776,32.577091101159574,-163.4845728368282,87.06930720011187
2360,-194.89680509653408,30.067132370391327,-164.82967272614275,80.36090075859613
2380,-193.46018996392377,27.393893285346486,-166.0662966785773,73.21609232888247
2400,-195.74901419039816,28.594569703287505,-167.15444448711065,76.42515920219563
2420,-196.33834082470275,28.200683820119004,-168.13765700458376,75.37241416560258
2440,-194.82012880715774,25.687312020401382,-169.13281678675636,68.65488556066454
2460,-194.82673141214764,24.72790870829398,-170.09882270385367,66.0906731375452
2480,-195.55767195514636,24.512877094844654,-171.0447948603017,65.51595473954531
2500,-195.80443688941887,23.777355049824184,-172.02708183959467,63.550113323825336
2520,-198.86383079458028,25.702025812202685,-173.1618049823776,68.69421134498481
2540,-203.49940284114564,29.142195619638965,-174.35720722150668,77.88880765974164
2560,-205.06566512509016,29.790294357198896,-175.27537076789127,79.62099141738234
2580,-205.5782121034572,28.813578683847098,-176.7646334196101,77.01050797224735
2600,-207.86529479245655,30.038720522093833,-177.82657427036273,80.28496396178835
2620,-210.01370795548428,30.674154025939647,-179.33955392954462,81.98329714874454
2640,-211.3736862479127,30.762758320265636,-180.61092792764705,82.2201112491184
2660,-215.2554808773566,33.23943441196925,-182.01604646538735,88.83956265422066
2680,-221.0024896559189,37.465987599000876,-183.53650205691804,100.13593827893595
2700,-220.9586664462695,35.850991618605555,-185.10767482766394,95.81951295086296
2720,-219.19444880017545,32.47588837902962,-186.71856042114584,86.79882108226732
2740,-220.15494049247354,32.33404914017273,-187.8208913523008,86.41972510274259
2760,-220.98880303802434,31.952340707106277,-189.03646233091806,85.39952692985068
2780,-221.4054097336484,31.077606522368168,-190.32780321128024,83.061611024072
2800,-221.37513102672528,29.84972795938959,-191.5254030673357,79.77984054700788
2820,-219.97597544663586,27.132786184300517,-192.84318926233533,72.51822724564018
2840,-218.3801331446739,24.42022094834666,-193.95991219632722,65.26831118971573
2860,-217.32168512255885,22.39564774189123,-194.92603738066762,59.857202324452174
2880,-217.50482673605438,21.841076809920626,-195.66374992613376,58.37499181369597
2900,-216.961353378254,20.27161927194983,-196.68973410630417,54.180277801730476
2920,-215.2183155863313,17.72551638330773,-197.49279920302357,47.37526829717161
2940,-215.6786600353662,17.378690962929184,-198.29996907243702,46.44830250461585
2960,-217.77093648375012,18.91132933776815,-198.85960714598195,50.5446093562974
2980,-218.2989088895265,18.712154095362163,-199.58675479416434,50.012270532249154
3000,-218.21023659966886,17.885377378331473,-200.3248592213374,47.80253130975355
3020,-220.0509131711442,19.154385245685138,-200.89652792545905,51.194228729847694
3040,-220.19936003326438,18.522456470817414,-201.67690356244697,49.50526268752387
3060,-218.80603006237652,16.323350072086015,-202.4826799902905,43.627676195768004
3080,-219.35894930677023,16.411905595501615,-202.9470437112686,43.86435994535746
3100,-220.28162469889503,16.70150195336663,-203.5801227455284,44.63836871638873
3120,-221.1058403616189,16.922585335514324,-204.18325502610458,45.229261772410304
3140,-221.55399864376523,16.875453828188895,-204.67854481557634,45.10329264651815
3160,-222.06284446967766,16.61377055972138,-205.44907390995627,44.403887631485475
3180,-224.2229224651819,18.06037112615634,-206.16255133902558,48.27023987035367
3200,-226.72501478617778,19.790313730543865,-206.93470105563392,52.89388486039446
3220,-227.52485412696842,19.596694535381623,-207.9281595915868,52.376395771787045
3240,-225.25044686277397,16.65757923981063,-208.59286762296335,44.52097578441103
3260,-223.67431916418718,14.490233591554977,-209.1840855726322,38.72827675334008
3280,-224.8770838220953,15.199754969580052,-209.67732885251525,40.62462577469617
3300,-226.09755702549592,15.70577327534914,-210.39178375014677,41.97706891263861
3320,-229.17051777103916,17.945191267402148,-211.225326503637,47.96239683814453
3340,-230.62624892545864,18.55117853137388,-212.07507039408478,49.582028593548
3360,-229.77150591334794,17.102951306005725,-212.6685546073422,45.71132875759313
3380,-229.81563637056388,16.617731928602964,-213.19790444196093,44.414475244818185
3400,-229.6357035721885,15.850826071607159,-213.78487750058133,42.364753817911655
3420,-228.7973395702429,14.467083620685253,-214.33025594955765,38.666403459648194
3440,-228.94131011527497,13.981356824521841,-214.95995329075313,37.36819376071737
3460,-230.4453281199094,14.915648911018144,-215.52967920889125,39.86529101354374
3480,-231.76124940719455,15.488890895560665,-216.27235851163388,41.39740394213969
3500,-232.27648722520098,15.387536117122645,-216.88895110807834,41.126511420992976
3520,-233.72089656675234,16.18555902232428,-217.53533754442807,43.259399875335475
3540,-235.34055263071787,17.22386546627638,-218.1166871644415,46.034497948260196
3560,-235.33123090618756,16.352904591613505,-218.97832631457405,43.70666702806485
3580,-234.3579241184052,15.039889557367038,-219.31803456103816,40.19735095622252
3600,-233.3050489500165,13.523830498261617,-219.78121845175488,36.14535590421299
3620,-232.5197394611314,12.244796676319647,-220.27494278481174,32.72686195654328
3640,-232.74980370874982,12.151372357678989,-220.59843135107084,32.47716530086505
3660,-232.9713733550161,11.986828046976813,-220.9845453080393,32.03738511631541
3680,-232.59761255816557,11.273929690394063,-221.3236828677715,30.13201039089835
3700,-232.6389443068765,10.610603050785247,-222.02834125609127,28.35912677833842
3720,-233.3385291105369,10.978940243645846,-222.35958886689107,29.343587425816697
3740,-234.09560362191405,11.243791916611492,-222.85181170530257,30.05146068571892
3760,-233.87029974034522,10.546024977152907,-223.3242747631923,28.186527938435077
3780,-233.0682002933463,9.330241588971733,-223.73795870437456,24.937084426562663
3800,-233.40376719564665,9.325910631595187,-224.07785656405147,24.925509008207538
3820,-234.69227237487212,10.264704571302001,-224.42756780357013,27.43463843539038
3840,-235.4954266883433,10.844065561769453,-224.65136112657385,28.98310572800805
3860,-235.63359923427925,10.489132918568849,-225.1444663157104,28.0344716326489
3880,-234.69064078992233,9.04904166960876,-225.64159912031357,24.18551694966201
3900,-233.52187204384245,7.571124193619028,-225.95074785022342,20.235463510766
3920,-234.2923359312117,8.070872392487011,-226.2214635387247,21.571148434715216
3940,-235.7564049217617,9.15545122538563,-226.60095369637608,24.469919454237804
3960,-235.98942690878175,9.045984363819258,-226.9434425449625,24.177345640070115
3980,-235.70620265207253,8.425710485641252,-227.2804921664313,22.51952982466838
4000,-236.1660742115928,8.566068661141168,-227.6000055504516,22.8946673427083
4020,-237.1342542116763,9.197363048682814,-227.9368911629935,24.58193784798105
4040,-237.4785454281373,9.160613105682643,-228.31793232245465,24.483715693439002
4060,-237.28783694282174,8.594184459138415,-228.69365248368334,22.969812881191057
4080,-237.9897007320542,9.114812859866877,-228.87488787218732,24.361304651262447
4100,-239.05014000681695,9.795207560287384,-229.25493244652955,26.179806340203374
4120,-239.24172620207537,9.67952045590687,-229.5622057461685,25.870607584577222
4140,-239.10114929720294,9.06256231779121,-230.03858697941172,24.221653800140363
4160,-239.19998678087723,8.807327313841034,-230.3926594670362,23.5394831637827
4180,-239.64926126645878,9.013255850142441,-230.63600541631635,24.089871623354473
4200,-240.7949328215327,9.733999141290125,-231.06093368024258,26.01621362959712
4220,-242.0764102480607,10.557710296994443,-231.51869995106625,28.217759477796736
4240,-242.56871499191038,10.809859156765071,-231.7588558351453,28.891681727740817
4260,-242.4481383812381,10.180022608239243,-232.26811577299884,27.208307611888543
4280,-242.09401825757232,9.533149092333328,-232.56086916523898,25.47939852356225
4300,-241.52729051792994,8.603894834557874,-232.92339568337206,22.99576595532527
4320,-241.5386070087552,8.254768278114433,-233.28383873064078,22.0626498799735
4340,-242.24160916230176,8.586388410787233,-233.65522075151452,22.948976259323004
4360,-242.63551526062656,8.598265611129653,-234.0372496494969,22.980720640737548
4380,-242.3779425402172,7.9595492345922505,-234.41839330562493,21.273613267958705
4400,-241.7552869336214,7.0923458499341425,-234.66294108368726,18.955825050793855
4420,-241.09987518831622,6.244586617925668,-234.85528857039054,16.69000552828746
4440,-241.0043513107812,5.972886715434431,-235.03146459534676,15.96382889689977
4460,-241.97880148352124,6.655932567454673,-235.32286891606657,17.7894163606987
4480,-242.84199459734373,7.194925820692268,-235.64706877665145,19.229992162853776
4500,-242.64362690178677,6.762856744458048,-235.88077015732873,18.075194301574907
4520,-242.23880891420413,6.0588475447577474,-236.17996136944637,16.193577766505314
4540,-242.59677483711857,6.218747166695724,-236.37802767042285,16.620944017852533
4560,-243.33812935114838,6.6472388377962695,-236.69089051335212,17.76618049178727
4580,-243.72033889370505,6.769076195003551,-236.9512626987015,18.091817125524436
4600,-244.01265601674095,6.813743367159777,-237.19891264958116,18.211199783790455
4620,-244.70557375450153,7.3537852286262035,-237.35178852587532,19.654578217762012
4640,-245.18538344989065,7.4808095030806765,-237.70457394680997,19.994078007353544
4660,-245.0788806672208,7.122998984565922,-237.95588168265488,19.037752169075016
4680,-245.25501468684524,7.038901629718081,-238.21611305712716,18.812983837205664
4700,-246.09079606144223,7.703524521977109,-238.38727153946513,20.589331964748226
4720,-246.79203157825395,8.021542306438091,-238.77048927181588,21.439303132657276
4740,-246.97333864832763,7.852336653157069,-239.12100199517056,20.987064503991117
4760,-246.69361240358558,7.435600330559325,-239.25801207302624,19.873246736129815
4780,-246.06521592615172,6.671792049754354,-239.39342387639738,17.831804250154445
4800,-245.6957689189585,5.941612361592624,-239.75415655736586,15.880241436199809
4820,-246.16570026881527,6.195227542445728,-239.97047272636954,16.558082745718224
4840,-246.92896774120163,6.710834774208771,-240.21813296699287,17.93615435799234
4860,-247.35124074306805,6.933390457293204,-240.41785028577485,18.53098245603942
4880,-247.67808711971156,6.860170478229267,-240.8179166414823,18.3352862586562
4900,-248.1728113652207,7.097784878875986,-241.0750264863447,18.970362029566367
4920,-248.14829806261696,6.766479670550566,-241.3818183920664,18.0848773535065
