#"Step","Potential Energy (kJ/mole)","Kinetic Energy (kJ/mole)","Total Energy (kJ/mole)","Temperature (K)"
20,-73.70233218452995,0.03182153675399717,-73.67051064777596,0.08504992513327282
40,-73.74053109973102,0.08169186648066147,-73.65883923325035,0.21833914502274435
60,-73.79524444151684,0.15654842658749737,-73.63869601492935,0.4184094584723616
80,-73.86557991927839,0.25087479384290273,-73.61470512543549,0.6705170337659434
100,-73.94420268397153,0.34549089356294177,-73.59871179040859,0.9233989816052722
120,-74.02460228129712,0.41419841954862613,-73.6104038617485,1.1070346741976742
140,-74.1058751915516,0.5051278538617584,-73.60074733768984,1.350063213030618
160,-74.1823227225068,0.5810438168994222,-73.60127890560737,1.5529650094676672
180,-74.25116233450535,0.6342180412397431,-73.6169442932656,1.6950846008037477
200,-74.30493349185781,0.7084221928142503,-73.59651129904356,1.8934112116390063
220,-74.34760814853507,0.7377609075454662,-73.60984724098961,1.9718252590398728
240,-74.38141293824447,0.7891586481570595,-73.59225429008741,2.109196814185973
260,-74.41104610489856,0.8018096498738764,-73.60923645502469,2.1430093467859592
280,-74.4443766025579,0.8602348237602319,-73.58414177879766,2.299163234115389
300,-74.49222814977111,0.9123826869465679,-73.57984546282454,2.438539653744178
320,-74.56176932216476,0.948645964569595,-73.61312335759517,2.5354610900270482
340,-74.65797193824983,0.9966331339482785,-73.66133880430155,2.6637171574371816
360,-74.78757535051409,1.1060368571387134,-73.68153849337537,2.9561222206677935
380,-74.95230113240541,1.2168735988630979,-73.7354275335423,3.2523573352239974
400,-75.15369621011632,1.4479200645123276,-73.70577614560399,3.8698788822720336
420,-75.38879569448909,1.6254312521266492,-73.76336444236244,4.344315844057671
440,-75.64521053843782,1.8400169391226702,-73.80519359931515,4.9178424073651765
460,-75.91781419149629,2.0321666607152467,-73.88564753078104,5.431404010695822
480,-76.20279490930261,2.268371665450681,-73.93442324385192,6.062712866838026
500,-76.49260910618614,2.4941944960672537,-73.99841461011889,6.666273121825106
520,-76.78425376254745,2.689736778052939,-74.09451698449452,7.188902075035004
540,-77.08870318848494,2.93905721224021,-74.14964597624473,7.855264747138163
560,-77.41568768958678,3.1138001185053508,-74.30188757108142,8.322302879529866
580,-77.77696041810123,3.4444768161907864,-74.33248360191044,9.206107725250632
600,-78.17989453866903,3.705351481815067,-74.47454305685396,9.903351574661068
620,-78.63037568608706,3.9963112668782332,-74.63406441920883,10.681004399152865
640,-79.14873451910535,4.359759307367574,-74.78897521173778,11.652397731675386
660,-79.76426427722618,4.808707944418964,-74.9555563328072,12.852309862415249
680,-80.50382664304198,5.369841820375701,-75.13398482266628,14.352061257478494
700,-81.40220925364702,6.133160488213877,-75.26904876543314,16.392195147125154
720,-82.48261927045678,6.94301647466917,-75.53960279578762,18.55671006509509
740,-83.77864002250863,7.9903212741182665,-75.78831874839035,21.35585818523339
760,-85.30549090175191,9.234120369025247,-76.07137053272666,24.680179720062576
780,-86.99746764411975,10.510580996884377,-76.48688664723538,28.09179625116403
800,-88.63343472512497,11.65342698927519,-76.98000773584978,31.14629883044283
820,-90.15300653853046,12.687451453582977,-77.46555508494748,33.90995238857286
840,-92.3682460905984,14.48992259933331,-77.87832349126509,38.7274455595051
860,-95.29377712304995,16.763622736168468,-78.53015438688148,44.804399916181524
880,-97.32900407629495,18.111928334150385,-79.21707574214457,48.40803763649779
900,-99.80945200823044,19.779351960600714,-80.03010004762973,52.86458716430264
920,-103.9025324105678,23.09605262938882,-80.80647978117898,61.72918555722818
940,-107.59316875925288,25.92935990016986,-81.66380885908302,69.30181076142156
960,-110.49691185981646,27.83728724150444,-82.65962461831202,74.4011583760476
980,-113.58487806241465,29.80374707014228,-83.78113099227237,79.65694669627159
1000,-114.65580048527045,29.620510994106017,-85.03528949116443,79.16720873455479
1020,-113.73095035289589,27.4744723794057,-86.25647797349019,73.43145734943515
1040,-114.30017848212447,26.845664888958073,-87.4545135931664,71.75083361340224
1060,-115.96545866705128,27.45862147971259,-88.50683718733869,73.3890923988479
1080,-119.68915567701333,30.00044611734739,-89.68870955966594,80.18266735419925
1100,-123.19070750684477,32.393905683012214,-90.79680182383257,86.57970463253683
1120,-125.07466751645552,33.197286608304324,-91.8773809081512,88.7269135520121
1140,-130.25579212189768,36.906614162954114,-93.34917795894357,98.64089203949426
1160,-132.74564550565265,38.01372014903555,-94.7319253566171,101.59987173801547
1180,-131.27027698080929,35.12693146306518,-96.14334551774411,93.88430590863992
1200,-127.79443263237772,30.29928856851142,-97.49514406386629,80.98138830519015
1220,-126.34903574256168,27.63532792668083,-98.71370781588085,73.86137851756678
1240,-126.58729602086532,27.008342050121016,-99.57895397074431,72.18562343781458
1260,-128.79680656539858,28.073345780542727,-100.72346078485586,75.03207577100196
1280,-130.28793189230782,28.504050677925775,-101.78388121438205,76.18322756986537
1300,-131.4530683549674,28.47584754218598,-102.97722081278141,76.10784860241522
1320,-133.00464561190165,28.99631297805935,-104.0083326338423,77.4989048137381
1340,-133.3626386335818,28.287194757102192,-105.07544387647962,75.60363331666088
1360,-132.91910893763998,26.69415070148894,-106.22495823615104,71.34587924553188
1380,-132.20776754480903,25.04040568195412,-107.1673618628549,66.9258887470123
1400,-131.11545828852104,23.07006683057567,-108.04539145794537,61.659732901290404
1420,-133.43664852611255,24.39584300970228,-109.04080551641027,65.2031558871093
1440,-138.8073928579106,28.877717532775318,-109.92967532513528,77.18193288932947
1460,-142.27298369456548,31.25380416462055,-111.01917952994494,83.53253725237057
1480,-142.71600564484834,30.6297052171674,-112.08630042768094,81.86449811375236
1500,-144.7656426288886,31.21829950354396,-113.54734312534464,83.43764338254302
1520,-149.12507745317998,34.0265359282332,-115.09854152494678,90.94326133942403
1540,-150.73043455195148,34.19954366250035,-116.53089088945111,91.40566185014261
1560,-152.4787811303686,34.377190783036994,-118.1015903473316,91.88046212200204
1580,-156.48936408830923,37.11106603020841,-119.37829805810082,99.18733378232277
1600,-156.4486248329631,35.35828670169169,-121.09033813127141,94.50265271811334
1620,-157.85545485260081,35.32443691226409,-122.53101794033672,94.41218184994469
1640,-158.4658467131958,34.601322767583916,-123.86452394561186,92.4795032259265
1660,-157.58421500778059,32.331099450500446,-125.25311555728014,86.41184142045113
1680,-159.99595925584435,33.562357137960646,-126.43360211788371,89.70264333702114
1700,-162.79967991582816,35.10558771716633,-127.69409219866183,93.8272601410268
1720,-162.78565623096074,33.59693677355886,-129.18871945740187,89.79506487660609
1740,-161.80852967500687,31.145265089395348,-130.66326458561153,83.24244314744718
1760,-163.27683741168585,31.428838370959593,-131.84799904072625,84.00035394708213
1780,-165.44863812535186,32.55011237560913,-132.89852574974273,86.99720073316168
1800,-163.6944796461612,29.527032623458478,-134.16744702270273,78.91736761322193
1820,-162.21183406416094,26.957831199052926,-135.25400286510802,72.0506222863941
1840,-165.22757578003802,28.720792170421493,-136.50678360961652,76.76251598866617
1860,-169.41117896381184,31.69875416884427,-137.71242479496757,84.721762173839
1880,-171.32206094980938,32.34098639090472,-138.98107455890465,86.43826640261592
1900,-170.65703513057088,30.2560655609855,-140.40096956958538,80.86586548859793
1920,-172.04138492315542,30.50318865270463,-141.53819627045078,81.52635528869457
1940,-177.1757914990012,34.55644531316588,-142.61934618583533,92.35955854292982
1960,-180.7004200698866,36.67154981434358,-144.02887025554304,98.01263183303782
1980,-182.09586069121724,36.45400745622637,-145.64185323499086,97.43120292800984
2000,-178.53477281544474,31.538802085640697,-146.99597072980404,84.29425570843657
2020,-177.0659404984035,28.780538692675808,-148.2854018057277,76.92220146470041
2040,-180.44137817426235,30.777583305763912,-149.66379486849843,82.25973422259318
2060,-184.6164260043006,33.647550818227295,-150.9688751860733,89.93034183519615
2080,-186.29272338346345,34.14243861685121,-152.15028476661223,91.2530362904552
2100,-183.99150715512224,30.61888486299641,-153.3726222921258,81.83557838183394
2120,-187.40215455013094,32.63882837623248,-154.76332617389846,87.23431339272521
2140,-192.16921094123973,36.13832141608176,-156.03088952515796,96.58746385005516
2160,-194.10695098037831,36.68529106115701,-157.4216599192213,98.04935828097008
2180,-195.11056860990357,36.196636701318376,-158.9139319085852,96.74332403625048
2200,-191.50804500473896,30.99584496334558,-160.51220004139338,82.84308561068896
2220,-188.9478000543313,27.309792542582567,-161.63800751174875,72.99131494207617
2240,-192.33506133884657,29.66899568007282,-162.66606565877376,79.29679452242749
2260,-196.08899984206073,32.14428587131973,-163.944713970741,85.91254180943524
2280,-197.861451843346,32.84996685668658,-165.0114849866594,87.79862655252627
2300,-197.8513130057254,31.410907801442022,-166.44040520428337,83.95243063002629
2320,-199.1218774279696,31.49912212883556,-167.62275529913404,84.18820245960518
2340,-200.14565437479177,31.06275737316756,-169.08289700162422,83.0219234678874
2360,-200.32832315418636,30.004781358562,-170.32354179562435,80.19425422203621
2380,-199.72303173306864,28.42051885069368,-171.30251288237497,75.95997073260898
2400,-198.9833437273046,26.674804238823512,-172.30853948848107,71.294171648441
2420,-198.00218311679782,24.588111646910818,-173.414071469887,65.7170353180896
2440,-200.85394919646205,26.202680140376422,-174.65126905608562,70.03231809507685
2460,-205.36716395930853,29.47602860783855,-175.89113535146998,78.78104837309516
2480,-206.83258434804156,29.730333652773766,-177.1022506952678,79.46073349326889
2500,-205.98598405148368,28.034372608704263,-177.9516114427794,74.92791155754199
2520,-206.59926537040155,27.455437110068914,-179.14382826033264,73.38058148368107
2540,-209.3252542532282,29.235383438431573,-180.08987081479663,78.13787221853133
2560,-211.6903941386845,30.304017166589897,-181.3863769720946,80.99402650414544
2580,-211.91932265961077,29.450722340876574,-182.4686003187342,78.71341191269548
2600,-211.58695694594644,27.834363074042052,-183.7525938719044,74.39334290737065
2620,-211.4981177445734,26.648521510137126,-184.84959623443626,71.22392538332953
2640,-210.9699217331363,25.07268153806593,-185.89724019507037,67.01215293868673
2660,-209.80219108518213,22.91594346508201,-186.8862476201001,61.24780494200109
2680,-209.85883201216348,22.240216396315876,-187.6186156158476,59.441778506088426
2700,-212.3017209583777,23.882164962954505,-188.4195559954232,63.83024043817152
2720,-213.09053190605482,23.82310784550655,-189.26742406054828,63.67239754527904
2740,-210.25126824947074,19.98416766342034,-190.2671005860504,53.41200133620745
2760,-209.01088481215993,17.920589440382944,-191.090295371777,47.896643145533744
2780,-211.86444362584734,20.325856147159044,-191.5385874786883,54.32523755686948
2800,-215.3733421250945,23.11876282954033,-192.25457929555415,61.78988346875833
2820,-217.1284650831367,23.74690226400441,-193.38156281913228,63.46872168098627
2840,-217.3768560703611,23.083714036890985,-194.2931420334701,61.696208005694345
2860,-217.56359029957093,22.274990083187394,-195.28860021638354,59.53471868958408
2880,-219.16027334856335,23.17518084541615,-195.9850925031472,61.94067279309239
2900,-221.4903317327844,24.725601202342776,-196.76473053044162,66.08450582985319
2920,-222.80447521817405,24.92028128777545,-197.8841939303986,66.60483037668413
2940,-221.12895187351387,22.473584795612823,-198.65536707790105,60.06550592196138
2960,-218.2596749359509,18.622756691088014,-199.6369182448629,49.77333667435902
2980,-218.4460046737222,18.02032773539575,-200.42567693832646,48.16321526583507
3000,-221.14802246168256,19.87597117811306,-201.2720512835695,53.12282287678212
3020,-221.70017007284332,19.765675221799793,-201.93449485104352,52.828033127956814
3040,-220.35360862035304,17.57739108321889,-202.77621753713416,46.97937146226099
3060,-220.6568526851479,17.25086405878123,-203.40598862636668,46.10665751393399
3080,-221.95112101384439,17.762324253864513,-204.18879675997988,47.47364527561142
3100,-223.12508903600974,18.220908502529287,-204.90418053348046,48.69931065807721
3120,-222.38423518126365,16.65060000689514,-205.73363517436852,44.502322278091114
3140,-220.78397896746174,14.497542939155457,-206.28643602830627,38.74781256240549
3160,-222.32349234784488,15.569794416006856,-206.75369793183802,41.61363606223372
3180,-225.35578824440017,18.06069620459695,-207.29509203980322,48.27110871264906
3200,-224.98774932243396,17.172791534169072,-207.81495778826488,45.897991841230564
3220,-224.40954652847722,15.919925383722145,-208.48962114475506,42.54943664349524
3240,-225.0022335726535,15.971373405265352,-209.03086016738814,42.6869425852834
3260,-226.5030638029566,16.762872219798687,-209.74019158315792,44.8023939991966
3280,-228.3988297584001,17.9077259896979,-210.4911037687022,47.862262797212544
3300,-228.1031789064873,16.833075012105798,-211.2701038943815,44.9900261137618
3320,-225.6057017367566,13.913052990593055,-211.69264874616354,37.185637022277355
3340,-226.1590421916917,14.033835813907524,-212.12520637778417,37.50845518658209
3360,-228.7735401422251,15.997144458271347,-212.77639568395375,42.75582128670219
3380,-228.71097351342905,15.25026511363959,-213.46070839978947,40.7596250364837
3400,-229.33470456837676,15.362514556927081,-213.9721900114497,41.05963590087583
3420,-231.6125069472473,16.854647310298812,-214.7578596369485,45.04768273671034
3440,-231.7561757385265,16.267061848958303,-215.48911388956822,43.47723377056692
3460,-229.6798228098778,13.735182189774616,-215.9446406201032,36.71023891658709
3480,-228.34777663147543,11.70542111650035,-216.64235551497507,31.28526435753399
3500,-228.2395931868814,11.243640450362692,-216.9959527365187,30.051055859477486
3520,-227.59272077400237,10.229522804420212,-217.36319796958216,27.340607569989874
3540,-226.8959851481486,9.136450666350873,-217.75953448179774,24.419136359257532
3560,-227.95102116733324,9.961889601805108,-217.98913156552814,26.6253000717518
3580,-230.07890473748557,11.643136982512019,-218.43576775497354,31.118796566438608
3600,-231.1626932733925,12.211026083410118,-218.9516671899824,32.63660275816246
3620,-230.6845137575874,11.325933550975448,-219.35858020661198,30.271001932484804
3640,-230.32946127222385,10.59816080403614,-219.73130046818773,28.325872188445985
3660,-231.56796253321227,11.47493135016136,-220.0930311830509,30.66923070954701
3680,-233.24922884837724,12.71316659233438,-220.53606225604287,33.978681647078076
3700,-233.57810191635508,12.630914533163685,-220.9471873831914,33.75884526618279
3720,-233.27108091011178,11.895597734257207,-221.37548317585458,31.793552415001482
3740,-233.58822777343448,11.506663541557014,-222.08156423187748,30.754041839926373
3760,-233.78675350779667,11.314144769180468,-222.4726087386162,30.239493868721993
3780,-235.62043403694406,12.69635893149108,-222.92407510545297,33.933759545815676
3800,-238.1776268290123,14.723880317851798,-223.4537465111605,39.35274805819254
3820,-238.92074917943683,14.895856931386977,-224.02489224804984,39.812392676204375
3840,-238.2325810061302,13.50581471459279,-224.72676629153742,36.09720483394582
3860,-236.60065430379473,11.345927619737964,-225.25472668405678,30.324440396645336
3880,-234.4574358696118,8.985730483865913,-225.47170538574588,24.016304141080365
3900,-233.6866617636988,7.991318725796605,-225.69534303790218,21.35852409012738
3920,-235.08817184681538,9.013210879388447,-226.07496096742693,24.089751429308222
3940,-236.19309270742815,9.792159102588387,-226.40093360483976,26.171658679043073
3960,-235.87575605872553,8.95747884884202,-226.9182772098835,23.940795548825694
3980,-236.50345741282217,9.130353435920151,-227.37310397690203,24.40284019494397
4000,-238.87914410443045,11.0948323047256,-227.78431179970485,29.653333972458118
4020,-240.76946468325332,12.381060049349815,-228.3884046339035,33.091055231186665
4040,-241.6531771570444,12.85703931241906,-228.79613784462535,34.36321254407774
4060,-241.63560285174754,12.25947606998284,-229.3761267817647,32.76609580441518
4080,-240.5570478591835,10.668775395257747,-229.88827246392577,28.514604924490225
4100,-239.98256835655775,9.746157497171193,-230.23641085938655,26.048709459871525
4120,-241.09800381562673,10.5790645701407,-230.51893924548602,28.274833381750685
4140,-242.83686887146905,11.858127974657641,-230.97874089681142,31.693406395236913
4160,-244.01675096154213,12.491036802945604,-231.52571415859651,33.38499184185483
4180,-244.36466578615364,12.406985884027675,-231.95767990212596,33.160347620030606
4200,-244.5665423909668,12.09124221538662,-232.47530017558017,32.316454517481006
4220,-243.63695338007528,10.720276909805316,-232.91667647026998,28.65225383787813
4240,-243.068451523548,9.736498622891501,-233.3319529006565,26.02289403364902
4260,-243.9729364940431,10.335952240107167,-233.63698425393594,27.625063207916128
4280,-244.8178669352783,10.778608503381342,-234.03925843189694,28.808157611630424
4300,-244.89506265311502,10.45409814667634,-234.4409645064387,27.94083364308371
4320,-244.47845227713697,9.724442194244288,-234.75401008289268,25.990670625906425
4340,-244.55310644209385,9.559555556312372,-234.99355088578147,25.549975497949568
4360,-245.81169963232242,10.500326609110857,-235.31137302321156,28.064389186597428
4380,-246.98104567220435,11.113423304313768,-235.8676223678906,29.703022431420674
4400,-246.6720382287167,10.515950532352623,-236.15608769636407,28.106147493629322
4420,-245.69981597387232,9.16887498095264,-236.53094099291968,24.505797338288716
4440,-246.0889808794018,9.247099252528296,-236.8418816268735,24.714868587504185
4460,-247.92060789023526,10.771116968672652,-237.1494909215626,28.78813486819622
4480,-249.55225048284046,12.096299865667396,-237.45595061717307,32.32997217946747
4500,-249.20329747116193,11.095078829019114,-238.10821864214282,29.653992861840774
4520,-247.19222617615014,8.70368258133194,-238.4885435948182,23.262470246131908
4540,-246.7375852537807,7.887487290360363,-238.85009796342035,21.081012168607014
4560,-249.11300033004954,9.917437866330078,-239.19556246371945,26.50649321451476
4580,-250.21707814768888,10.633514765022346,-239.58356338266654,28.420363279755826
4600,-248.87190302531235,9.022769156368563,-239.8491338689438,24.115297987535328
4620,-247.48027996718884,7.304743061576632,-240.1755369056122,19.52350244137244
4640,-247.74414380337112,7.302289838007341,-240.44185396536378,19.51694567189533
4660,-248.7033368155826,7.968223206814077,-240.7351136087685,21.296796330856566
4680,-248.71540684741922,7.641877066576671,-241.07352978084253,20.42456583459565
4700,-247.80755666689947,6.44976771825628,-241.3577889486432,17.238396303905457
4720,-247.30155771039426,5.7258677370371025,-241.57568997335716,15.30361736212682
4740,-247.6865073959343,5.896363449561325,-241.79014394637298,15.759303952558618
4760,-248.7811673139222,6.746333721024999,-242.0348335928972,18.031032955225736
4780,-249.4310959673021,6.928219564274122,-242.50287640302798,18.517162128393245
4800,-249.5493830954656,6.771547872993703,-242.7778352224719,18.098423218424383
4820,-250.00293035735376,7.015097601016528,-242.98783275633724,18.749362432790527
4840,-250.4569717864506,7.144989271396835,-243.31198251505376,19.096525956874356
4860,-250.550025555538,7.053437994464928,-243.49658756107308,18.851835409428176
4880,-250.36978846020065,6.446593817146977,-243.92319464305368,17.229913368156204
4900,-250.26265686331317,6.155777014659304,-244.10687984865388,16.45264269545786
4920,-250.7318886113353,6.4081682920086465,-244.32372031932667,17.12721285870293
4940,-251.3476579010021,6.624025832488044,-244.72363206851406,17.70413872495353
